1200.50000   -0.04626
1201.00000    0.00570
1201.50000    0.05763
1202.00000    0.10947
1202.50000    0.16112
1203.00000    0.21244
1203.50000    0.26325
1204.00000    0.31332
1204.50000    0.36240
1205.00000    0.41022
1205.50000    0.45649
1206.00000    0.50095
1206.50000    0.54332
1207.00000    0.58338
1207.50000    0.62090
1208.00000    0.65575
1208.50000    0.68779
1209.00000    0.71698
1209.50000    0.74329
1210.00000    0.76676
1210.50000    0.78747
1211.00000    0.80554
1211.50000    0.82109
1212.00000    0.83428
1212.50000    0.84526
1213.00000    0.85417
1213.50000    0.86113
1214.00000    0.86623
1214.50000    0.86952
1215.00000    0.87100
1215.50000    0.87063
1216.00000    0.86833
1216.50000    0.86396
1217.00000    0.85736
1217.50000    0.84831
1218.00000    0.83660
1218.50000    0.82201
1219.00000    0.80431
1219.50000    0.78330
1220.00000    0.75881
1220.50000    0.73072
1221.00000    0.69896
1221.50000    0.66354
1222.00000    0.62452
1222.50000    0.58204
1223.00000    0.53633
1223.50000    0.48766
1224.00000    0.43639
1224.50000    0.38293
1225.00000    0.32774
1225.50000    0.27131
1226.00000    0.21416
1226.50000    0.15682
1227.00000    0.09982
1227.50000    0.04367
1228.00000   -0.01113
1228.50000   -0.06413
1229.00000   -0.11491
1229.50000   -0.16309
1230.00000   -0.20834
1230.50000   -0.25039
1231.00000   -0.28900
1231.50000   -0.32399
1232.00000   -0.35521
1232.50000   -0.38255
1233.00000   -0.40595
1233.50000   -0.42537
1234.00000   -0.44080
1234.50000   -0.45226
1235.00000   -0.45978
1235.50000   -0.46343
1236.00000   -0.46331
1236.50000   -0.45953
1237.00000   -0.45224
1237.50000   -0.44160
1238.00000   -0.42783
1238.50000   -0.41116
1239.00000   -0.39185
1239.50000   -0.37021
1240.00000   -0.34656
1240.50000   -0.32127
1241.00000   -0.29471
1241.50000   -0.26727
1242.00000   -0.23937
1242.50000   -0.21139
1243.00000   -0.18375
1243.50000   -0.15681
1244.00000   -0.13093
1244.50000   -0.10641
1245.00000   -0.08352
1245.50000   -0.06247
1246.00000   -0.04341
1246.50000   -0.02643
1247.00000   -0.01155
1247.50000    0.00125
1248.00000    0.01207
1248.50000    0.02107
1249.00000    0.02844
1249.50000    0.03443
1250.00000    0.03929
1250.50000    0.04333
1251.00000    0.04685
1251.50000    0.05016
1252.00000    0.05355
1252.50000    0.05732
1253.00000    0.06171
1253.50000    0.06696
1254.00000    0.07327
1254.50000    0.08078
1255.00000    0.08962
1255.50000    0.09985
1256.00000    0.11150
1256.50000    0.12458
1257.00000    0.13903
1257.50000    0.15477
1258.00000    0.17168
1258.50000    0.18962
1259.00000    0.20841
1259.50000    0.22786
1260.00000    0.24774
1260.50000    0.26782
1261.00000    0.28785
1261.50000    0.30757
1262.00000    0.32670
1262.50000    0.34498
1263.00000    0.36212
1263.50000    0.37787
1264.00000    0.39196
1264.50000    0.40414
1265.00000    0.41420
1265.50000    0.42193
1266.00000    0.42716
1266.50000    0.42976
1267.00000    0.42963
1267.50000    0.42673
1268.00000    0.42106
1268.50000    0.41267
1269.00000    0.40166
1269.50000    0.38821
1270.00000    0.37250
1270.50000    0.35480
1271.00000    0.33540
1271.50000    0.31462
1272.00000    0.29281
1272.50000    0.27032
1273.00000    0.24751
1273.50000    0.22474
1274.00000    0.20233
1274.50000    0.18057
1275.00000    0.15974
1275.50000    0.14003
1276.00000    0.12160
1276.50000    0.10455
1277.00000    0.08891
1277.50000    0.07465
1278.00000    0.06167
1278.50000    0.04986
1279.00000    0.03901
1279.50000    0.02892
1280.00000    0.01934
1280.50000    0.01003
1281.00000    0.00072
1281.50000   -0.00881
1282.00000   -0.01879
1282.50000   -0.02940
1283.00000   -0.04078
1283.50000   -0.05304
1284.00000   -0.06624
1284.50000   -0.08036
1285.00000   -0.09539
1285.50000   -0.11122
1286.00000   -0.12775
1286.50000   -0.14480
1287.00000   -0.16222
1287.50000   -0.17981
1288.00000   -0.19739
1288.50000   -0.21476
1289.00000   -0.23177
1289.50000   -0.24823
1290.00000   -0.26403
1290.50000   -0.27904
1291.00000   -0.29317
1291.50000   -0.30635
1292.00000   -0.31852
1292.50000   -0.32964
1293.00000   -0.33968
1293.50000   -0.34862
1294.00000   -0.35644
1294.50000   -0.36310
1295.00000   -0.36857
1295.50000   -0.37281
1296.00000   -0.37578
1296.50000   -0.37741
1297.00000   -0.37766
1297.50000   -0.37646
1298.00000   -0.37377
1298.50000   -0.36955
1299.00000   -0.36377
1299.50000   -0.35644
1300.00000   -0.34757
1300.50000   -0.33721
1301.00000   -0.32543
1301.50000   -0.31233
1302.00000   -0.29801
1302.50000   -0.28262
1303.00000   -0.26630
1303.50000   -0.24918
1304.00000   -0.23142
1304.50000   -0.21314
1305.00000   -0.19445
1305.50000   -0.17543
1306.00000   -0.15614
1306.50000   -0.13661
1307.00000   -0.11684
1307.50000   -0.09683
1308.00000   -0.07651
1308.50000   -0.05587
1309.00000   -0.03484
1309.50000   -0.01340
1310.00000    0.00845
1310.50000    0.03070
1311.00000    0.05327
1311.50000    0.07604
1312.00000    0.09883
1312.50000    0.12139
1313.00000    0.14344
1313.50000    0.16462
1314.00000    0.18454
1314.50000    0.20278
1315.00000    0.21891
1315.50000    0.23249
1316.00000    0.24311
1316.50000    0.25040
1317.00000    0.25406
1317.50000    0.25384
1318.00000    0.24962
1318.50000    0.24135
1319.00000    0.22912
1319.50000    0.21312
1320.00000    0.19367
1320.50000    0.17123
1321.00000    0.14633
1321.50000    0.11964
1322.00000    0.09190
1322.50000    0.06390
1323.00000    0.03650
1323.50000    0.01057
1324.00000   -0.01299
1324.50000   -0.03331
1325.00000   -0.04957
1325.50000   -0.06096
1326.00000   -0.06678
1326.50000   -0.06638
1327.00000   -0.05921
1327.50000   -0.04482
1328.00000   -0.02287
1328.50000    0.00687
1329.00000    0.04454
1329.50000    0.09015
1330.00000    0.14360
1330.50000    0.20471
1331.00000    0.27319
1331.50000    0.34865
1332.00000    0.43064
1332.50000    0.51862
1333.00000    0.61200
1333.50000    0.71010
1334.00000    0.81224
1334.50000    0.91764
1335.00000    1.02554
1335.50000    1.13513
1336.00000    1.24557
1336.50000    1.35603
1337.00000    1.46569
1337.50000    1.57372
1338.00000    1.67933
1338.50000    1.78173
1339.00000    1.88021
1339.50000    1.97407
1340.00000    2.06271
1340.50000    2.14557
1341.00000    2.22218
1341.50000    2.29215
1342.00000    2.35520
1342.50000    2.41112
1343.00000    2.45983
1343.50000    2.50134
1344.00000    2.53575
1344.50000    2.56329
1345.00000    2.58426
1345.50000    2.59906
1346.00000    2.60814
1346.50000    2.61204
1347.00000    2.61134
1347.50000    2.60662
1348.00000    2.59850
1348.50000    2.58757
1349.00000    2.57438
1349.50000    2.55944
1350.00000    2.54318
1350.50000    2.52594
1351.00000    2.50796
1351.50000    2.48936
1352.00000    2.47016
1352.50000    2.45027
1353.00000    2.42947
1353.50000    2.40746
1354.00000    2.38385
1354.50000    2.35818
1355.00000    2.32994
1355.50000    2.29862
1356.00000    2.26369
1356.50000    2.22469
1357.00000    2.18120
1357.50000    2.13288
1358.00000    2.07951
1358.50000    2.02098
1359.00000    1.95731
1359.50000    1.88868
1360.00000    1.81538
1360.50000    1.73784
1361.00000    1.65661
1361.50000    1.57232
1362.00000    1.48572
1362.50000    1.39757
1363.00000    1.30869
1363.50000    1.21991
1364.00000    1.13200
1364.50000    1.04573
1365.00000    0.96177
1365.50000    0.88072
1366.00000    0.80309
1366.50000    0.72926
1367.00000    0.65954
1367.50000    0.59409
1368.00000    0.53304
1368.50000    0.47637
1369.00000    0.42405
1369.50000    0.37596
1370.00000    0.33196
1370.50000    0.29187
1371.00000    0.25552
1371.50000    0.22273
1372.00000    0.19333
1372.50000    0.16718
1373.00000    0.14414
1373.50000    0.12412
1374.00000    0.10702
1374.50000    0.09275
1375.00000    0.08124
1375.50000    0.07240
1376.00000    0.06612
1376.50000    0.06227
1377.00000    0.06069
1377.50000    0.06120
1378.00000    0.06356
1378.50000    0.06751
1379.00000    0.07277
1379.50000    0.07903
1380.00000    0.08597
1380.50000    0.09327
1381.00000    0.10061
1381.50000    0.10770
1382.00000    0.11427
1382.50000    0.12010
1383.00000    0.12500
1383.50000    0.12885
1384.00000    0.13156
1384.50000    0.13311
1385.00000    0.13349
1385.50000    0.13275
1386.00000    0.13096
1386.50000    0.12821
1387.00000    0.12459
1387.50000    0.12017
1388.00000    0.11503
1388.50000    0.10921
1389.00000    0.10275
1389.50000    0.09563
1390.00000    0.08785
1390.50000    0.07935
1391.00000    0.07008
1391.50000    0.06000
1392.00000    0.04904
1392.50000    0.03718
1393.00000    0.02441
1393.50000    0.01077
1394.00000   -0.00365
1394.50000   -0.01873
1395.00000   -0.03428
1395.50000   -0.05007
1396.00000   -0.06583
1396.50000   -0.08127
1397.00000   -0.09606
1397.50000   -0.10989
1398.00000   -0.12242
1398.50000   -0.13337
1399.00000   -0.14250
1399.50000   -0.14959
1400.00000   -0.15452
1400.50000   -0.15722
1401.00000   -0.15769
1401.50000   -0.15603
1402.00000   -0.15239
1402.50000   -0.14699
1403.00000   -0.14013
1403.50000   -0.13212
1404.00000   -0.12332
1404.50000   -0.11408
1405.00000   -0.10478
1405.50000   -0.09575
1406.00000   -0.08732
1406.50000   -0.07976
1407.00000   -0.07330
1407.50000   -0.06814
1408.00000   -0.06438
1408.50000   -0.06213
1409.00000   -0.06142
1409.50000   -0.06224
1410.00000   -0.06455
1410.50000   -0.06830
1411.00000   -0.07340
1411.50000   -0.07977
1412.00000   -0.08732
1412.50000   -0.09594
1413.00000   -0.10557
1413.50000   -0.11611
1414.00000   -0.12749
1414.50000   -0.13963
1415.00000   -0.15245
1415.50000   -0.16587
1416.00000   -0.17980
1416.50000   -0.19413
1417.00000   -0.20873
1417.50000   -0.22347
1418.00000   -0.23818
1418.50000   -0.25269
1419.00000   -0.26682
1419.50000   -0.28035
1420.00000   -0.29309
1420.50000   -0.30483
1421.00000   -0.31538
1421.50000   -0.32454
1422.00000   -0.33215
1422.50000   -0.33805
1423.00000   -0.34211
1423.50000   -0.34422
1424.00000   -0.34429
1424.50000   -0.34224
1425.00000   -0.33801
1425.50000   -0.33154
1426.00000   -0.32279
1426.50000   -0.31170
1427.00000   -0.29824
1427.50000   -0.28235
1428.00000   -0.26398
1428.50000   -0.24311
1429.00000   -0.21968
1429.50000   -0.19369
1430.00000   -0.16516
1430.50000   -0.13414
1431.00000   -0.10073
1431.50000   -0.06509
1432.00000   -0.02747
1432.50000    0.01182
1433.00000    0.05238
1433.50000    0.09373
1434.00000    0.13530
1434.50000    0.17644
1435.00000    0.21648
1435.50000    0.25465
1436.00000    0.29021
1436.50000    0.32239
1437.00000    0.35043
1437.50000    0.37367
1438.00000    0.39148
1438.50000    0.40335
1439.00000    0.40889
1439.50000    0.40785
1440.00000    0.40015
1440.50000    0.38585
1441.00000    0.36519
1441.50000    0.33859
1442.00000    0.30660
1442.50000    0.26992
1443.00000    0.22938
1443.50000    0.18589
1444.00000    0.14043
1444.50000    0.09403
1445.00000    0.04773
1445.50000    0.00253
1446.00000   -0.04059
1446.50000   -0.08073
1447.00000   -0.11708
1447.50000   -0.14892
1448.00000   -0.17568
1448.50000   -0.19690
1449.00000   -0.21225
1449.50000   -0.22157
1450.00000   -0.22482
1450.50000   -0.22206
1451.00000   -0.21353
1451.50000   -0.19954
1452.00000   -0.18050
1452.50000   -0.15694
1453.00000   -0.12941
1453.50000   -0.09856
1454.00000   -0.06505
1454.50000   -0.02958
1455.00000    0.00714
1455.50000    0.04441
1456.00000    0.08155
1456.50000    0.11788
1457.00000    0.15281
1457.50000    0.18577
1458.00000    0.21626
1458.50000    0.24385
1459.00000    0.26820
1459.50000    0.28905
1460.00000    0.30624
1460.50000    0.31967
1461.00000    0.32936
1461.50000    0.33540
1462.00000    0.33797
1462.50000    0.33732
1463.00000    0.33373
1463.50000    0.32755
1464.00000    0.31916
1464.50000    0.30895
1465.00000    0.29729
1465.50000    0.28457
1466.00000    0.27113
1466.50000    0.25728
1467.00000    0.24329
1467.50000    0.22938
1468.00000    0.21571
1468.50000    0.20239
1469.00000    0.18948
1469.50000    0.17700
1470.00000    0.16493
1470.50000    0.15324
1471.00000    0.14187
1471.50000    0.13074
1472.00000    0.11982
1472.50000    0.10907
1473.00000    0.09846
1473.50000    0.08800
1474.00000    0.07774
1474.50000    0.06773
1475.00000    0.05807
1475.50000    0.04886
1476.00000    0.04022
1476.50000    0.03227
1477.00000    0.02512
1477.50000    0.01885
1478.00000    0.01355
1478.50000    0.00924
1479.00000    0.00592
1479.50000    0.00353
1480.00000    0.00199
1480.50000    0.00114
1481.00000    0.00082
1481.50000    0.00080
1482.00000    0.00085
1482.50000    0.00071
1483.00000    0.00013
1483.50000   -0.00115
1484.00000   -0.00334
1484.50000   -0.00667
1485.00000   -0.01128
1485.50000   -0.01729
1486.00000   -0.02479
1486.50000   -0.03377
1487.00000   -0.04422
1487.50000   -0.05606
1488.00000   -0.06914
1488.50000   -0.08331
1489.00000   -0.09836
1489.50000   -0.11408
1490.00000   -0.13023
1490.50000   -0.14657
1491.00000   -0.16286
1491.50000   -0.17887
1492.00000   -0.19441
1492.50000   -0.20929
1493.00000   -0.22336
1493.50000   -0.23650
1494.00000   -0.24862
1494.50000   -0.25967
1495.00000   -0.26960
1495.50000   -0.27841
1496.00000   -0.28612
1496.50000   -0.29274
1497.00000   -0.29832
1497.50000   -0.30287
1498.00000   -0.30645
1498.50000   -0.30905
1499.00000   -0.31071
1499.50000   -0.31140
1500.00000   -0.31110
1500.50000   -0.30975
1501.00000   -0.30731
1501.50000   -0.30367
1502.00000   -0.29874
1502.50000   -0.29241
1503.00000   -0.28458
1503.50000   -0.27514
1504.00000   -0.26399
1504.50000   -0.25106
1505.00000   -0.23631
1505.50000   -0.21971
1506.00000   -0.20129
1506.50000   -0.18112
1507.00000   -0.15930
1507.50000   -0.13600
1508.00000   -0.11140
1508.50000   -0.08574
1509.00000   -0.05928
1509.50000   -0.03234
1510.00000   -0.00520
1510.50000    0.02180
1511.00000    0.04835
1511.50000    0.07414
1512.00000    0.09891
1512.50000    0.12239
1513.00000    0.14437
1513.50000    0.16470
1514.00000    0.18325
1514.50000    0.19993
1515.00000    0.21472
1515.50000    0.22760
1516.00000    0.23861
1516.50000    0.24778
1517.00000    0.25518
1517.50000    0.26086
1518.00000    0.26488
1518.50000    0.26725
1519.00000    0.26800
1519.50000    0.26710
1520.00000    0.26451
1520.50000    0.26014
1521.00000    0.25388
1521.50000    0.24561
1522.00000    0.23518
1522.50000    0.22244
1523.00000    0.20726
1523.50000    0.18952
1524.00000    0.16914
1524.50000    0.14609
1525.00000    0.12040
1525.50000    0.09216
1526.00000    0.06154
1526.50000    0.02881
1527.00000   -0.00571
1527.50000   -0.04160
1528.00000   -0.07837
1528.50000   -0.11547
1529.00000   -0.15229
1529.50000   -0.18818
1530.00000   -0.22249
1530.50000   -0.25452
1531.00000   -0.28362
1531.50000   -0.30917
1532.00000   -0.33059
1532.50000   -0.34737
1533.00000   -0.35910
1533.50000   -0.36546
1534.00000   -0.36625
1534.50000   -0.36139
1535.00000   -0.35091
1535.50000   -0.33499
1536.00000   -0.31390
1536.50000   -0.28805
1537.00000   -0.25794
1537.50000   -0.22416
1538.00000   -0.18739
1538.50000   -0.14833
1539.00000   -0.10777
1539.50000   -0.06649
1540.00000   -0.02527
1540.50000    0.01512
1541.00000    0.05396
1541.50000    0.09055
1542.00000    0.12431
1542.50000    0.15471
1543.00000    0.18131
1543.50000    0.20379
1544.00000    0.22191
1544.50000    0.23554
1545.00000    0.24467
1545.50000    0.24936
1546.00000    0.24977
1546.50000    0.24613
1547.00000    0.23876
1547.50000    0.22800
1548.00000    0.21428
1548.50000    0.19801
1549.00000    0.17966
1549.50000    0.15970
1550.00000    0.13859
1550.50000    0.11678
1551.00000    0.09472
1551.50000    0.07280
1552.00000    0.05142
1552.50000    0.03092
1553.00000    0.01159
1553.50000   -0.00631
1554.00000   -0.02255
1554.50000   -0.03696
1555.00000   -0.04942
1555.50000   -0.05984
1556.00000   -0.06815
1556.50000   -0.07435
1557.00000   -0.07843
1557.50000   -0.08042
1558.00000   -0.08035
1558.50000   -0.07826
1559.00000   -0.07419
1559.50000   -0.06817
1560.00000   -0.06019
1560.50000   -0.05025
1561.00000   -0.03831
1561.50000   -0.02428
1562.00000   -0.00806
1562.50000    0.01049
1563.00000    0.03152
1563.50000    0.05523
1564.00000    0.08182
1564.50000    0.11151
1565.00000    0.14450
1565.50000    0.18100
1566.00000    0.22119
1566.50000    0.26523
1567.00000    0.31323
1567.50000    0.36528
1568.00000    0.42141
1568.50000    0.48161
1569.00000    0.54585
1569.50000    0.61403
1570.00000    0.68605
1570.50000    0.76180
1571.00000    0.84114
1571.50000    0.92395
1572.00000    1.01012
1572.50000    1.09955
1573.00000    1.19218
1573.50000    1.28799
1574.00000    1.38699
1574.50000    1.48924
1575.00000    1.59481
1575.50000    1.70382
1576.00000    1.81640
1576.50000    1.93269
1577.00000    2.05283
1577.50000    2.17693
1578.00000    2.30507
1578.50000    2.43729
1579.00000    2.57357
1579.50000    2.71381
1580.00000    2.85786
1580.50000    3.00546
1581.00000    3.15628
1581.50000    3.30990
1582.00000    3.46582
1582.50000    3.62346
1583.00000    3.78214
1583.50000    3.94113
1584.00000    4.09963
1584.50000    4.25675
1585.00000    4.41158
1585.50000    4.56314
1586.00000    4.71040
1586.50000    4.85232
1587.00000    4.98781
1587.50000    5.11576
1588.00000    5.23506
1588.50000    5.34461
1589.00000    5.44330
1589.50000    5.53009
1590.00000    5.60397
1590.50000    5.66401
1591.00000    5.70936
1591.50000    5.73930
1592.00000    5.75326
1592.50000    5.75079
1593.00000    5.73166
1593.50000    5.69580
1594.00000    5.64337
1594.50000    5.57471
1595.00000    5.49042
1595.50000    5.39128
1596.00000    5.27828
1596.50000    5.15258
1597.00000    5.01553
1597.50000    4.86858
1598.00000    4.71331
1598.50000    4.55135
1599.00000    4.38438
1599.50000    4.21406
1600.00000    4.04203
1600.50000    3.86982
1601.00000    3.69889
1601.50000    3.53056
1602.00000    3.36597
1602.50000    3.20615
1603.00000    3.05191
1603.50000    2.90394
1604.00000    2.76271
1604.50000    2.62857
1605.00000    2.50173
1605.50000    2.38223
1606.00000    2.27005
1606.50000    2.16505
1607.00000    2.06703
1607.50000    1.97573
1608.00000    1.89086
1608.50000    1.81211
1609.00000    1.73919
1609.50000    1.67176
1610.00000    1.60955
1610.50000    1.55227
1611.00000    1.49967
1611.50000    1.45150
1612.00000    1.40755
1612.50000    1.36760
1613.00000    1.33146
1613.50000    1.29892
1614.00000    1.26979
1614.50000    1.24386
1615.00000    1.22092
1615.50000    1.20074
1616.00000    1.18308
1616.50000    1.16768
1617.00000    1.15425
1617.50000    1.14252
1618.00000    1.13216
1618.50000    1.12286
1619.00000    1.11428
1619.50000    1.10610
1620.00000    1.09796
1620.50000    1.08953
1621.00000    1.08049
1621.50000    1.07051
1622.00000    1.05930
1622.50000    1.04656
1623.00000    1.03205
1623.50000    1.01554
1624.00000    0.99683
1624.50000    0.97576
1625.00000    0.95222
1625.50000    0.92612
1626.00000    0.89743
1626.50000    0.86616
1627.00000    0.83235
1627.50000    0.79609
1628.00000    0.75753
1628.50000    0.71683
1629.00000    0.67420
1629.50000    0.62990
1630.00000    0.58418
1630.50000    0.53736
1631.00000    0.48975
1631.50000    0.44169
1632.00000    0.39351
1632.50000    0.34557
1633.00000    0.29821
1633.50000    0.25177
1634.00000    0.20657
1634.50000    0.16293
1635.00000    0.12112
1635.50000    0.08143
1636.00000    0.04408
1636.50000    0.00930
1637.00000   -0.02273
1637.50000   -0.05186
1638.00000   -0.07794
1638.50000   -0.10089
1639.00000   -0.12063
1639.50000   -0.13711
1640.00000   -0.15033
1640.50000   -0.16029
1641.00000   -0.16705
1641.50000   -0.17068
1642.00000   -0.17129
1642.50000   -0.16902
1643.00000   -0.16407
1643.50000   -0.15665
1644.00000   -0.14701
1644.50000   -0.13546
1645.00000   -0.12234
1645.50000   -0.10800
1646.00000   -0.09286
1646.50000   -0.07735
1647.00000   -0.06190
1647.50000   -0.04697
1648.00000   -0.03301
1648.50000   -0.02046
1649.00000   -0.00971
1649.50000   -0.00113
1650.00000    0.00497
1650.50000    0.00837
1651.00000    0.00891
1651.50000    0.00653
1652.00000    0.00127
1652.50000   -0.00672
1653.00000   -0.01722
1653.50000   -0.02990
1654.00000   -0.04432
1654.50000   -0.05999
1655.00000   -0.07636
1655.50000   -0.09281
1656.00000   -0.10872
1656.50000   -0.12346
1657.00000   -0.13640
1657.50000   -0.14697
1658.00000   -0.15467
1658.50000   -0.15904
1659.00000   -0.15976
1659.50000   -0.15659
1660.00000   -0.14941
1660.50000   -0.13823
1661.00000   -0.12318
1661.50000   -0.10448
1662.00000   -0.08250
1662.50000   -0.05765
1663.00000   -0.03045
1663.50000   -0.00148
1664.00000    0.02867
1664.50000    0.05936
1665.00000    0.08997
1665.50000    0.11987
1666.00000    0.14849
1666.50000    0.17529
1667.00000    0.19979
1667.50000    0.22156
1668.00000    0.24027
1668.50000    0.25563
1669.00000    0.26745
1669.50000    0.27559
1670.00000    0.28000
1670.50000    0.28067
1671.00000    0.27765
1671.50000    0.27106
1672.00000    0.26105
1672.50000    0.24780
1673.00000    0.23154
1673.50000    0.21253
1674.00000    0.19105
1674.50000    0.16738
1675.00000    0.14185
1675.50000    0.11479
1676.00000    0.08655
1676.50000    0.05748
1677.00000    0.02794
1677.50000   -0.00172
1678.00000   -0.03113
1678.50000   -0.05996
1679.00000   -0.08787
1679.50000   -0.11455
1680.00000   -0.13973
1680.50000   -0.16317
1681.00000   -0.18464
1681.50000   -0.20399
1682.00000   -0.22109
1682.50000   -0.23588
1683.00000   -0.24830
1683.50000   -0.25838
1684.00000   -0.26616
1684.50000   -0.27171
1685.00000   -0.27512
1685.50000   -0.27650
1686.00000   -0.27597
1686.50000   -0.27364
1687.00000   -0.26961
1687.50000   -0.26395
1688.00000   -0.25673
1688.50000   -0.24800
1689.00000   -0.23779
1689.50000   -0.22609
1690.00000   -0.21291
1690.50000   -0.19826
1691.00000   -0.18215
1691.50000   -0.16459
1692.00000   -0.14566
1692.50000   -0.12543
1693.00000   -0.10404
1693.50000   -0.08169
1694.00000   -0.05859
1694.50000   -0.03505
1695.00000   -0.01138
1695.50000    0.01203
1696.00000    0.03478
1696.50000    0.05646
1697.00000    0.07663
1697.50000    0.09488
1698.00000    0.11083
1698.50000    0.12413
1699.00000    0.13450
1699.50000    0.14169
1700.00000    0.14558
1700.50000    0.14609
1701.00000    0.14322
1701.50000    0.13708
1702.00000    0.12782
1702.50000    0.11568
1703.00000    0.10095
1703.50000    0.08397
1704.00000    0.06512
1704.50000    0.04478
1705.00000    0.02338
1705.50000    0.00134
1706.00000   -0.02093
1706.50000   -0.04303
1707.00000   -0.06458
1707.50000   -0.08520
1708.00000   -0.10456
1708.50000   -0.12235
1709.00000   -0.13826
1709.50000   -0.15204
1710.00000   -0.16344
1710.50000   -0.17224
1711.00000   -0.17824
1711.50000   -0.18130
1712.00000   -0.18126
1712.50000   -0.17803
1713.00000   -0.17153
1713.50000   -0.16175
1714.00000   -0.14870
1714.50000   -0.13245
1715.00000   -0.11310
1715.50000   -0.09083
1716.00000   -0.06585
1716.50000   -0.03844
1717.00000   -0.00892
1717.50000    0.02235
1718.00000    0.05496
1718.50000    0.08845
1719.00000    0.12235
1719.50000    0.15617
1720.00000    0.18937
1720.50000    0.22145
1721.00000    0.25187
1721.50000    0.28013
1722.00000    0.30572
1722.50000    0.32817
1723.00000    0.34704
1723.50000    0.36194
1724.00000    0.37252
1724.50000    0.37848
1725.00000    0.37962
1725.50000    0.37577
1726.00000    0.36688
1726.50000    0.35298
1727.00000    0.33419
1727.50000    0.31073
1728.00000    0.28294
1728.50000    0.25125
1729.00000    0.21619
1729.50000    0.17839
1730.00000    0.13857
1730.50000    0.09752
1731.00000    0.05609
1731.50000    0.01515
1732.00000   -0.02440
1732.50000   -0.06167
1733.00000   -0.09581
1733.50000   -0.12602
1734.00000   -0.15161
1734.50000   -0.17198
1735.00000   -0.18666
1735.50000   -0.19534
1736.00000   -0.19785
1736.50000   -0.19423
1737.00000   -0.18464
1737.50000   -0.16944
1738.00000   -0.14913
1738.50000   -0.12437
1739.00000   -0.09594
1739.50000   -0.06469
1740.00000   -0.03157
1740.50000    0.00244
1741.00000    0.03635
1741.50000    0.06920
1742.00000    0.10006
1742.50000    0.12812
1743.00000    0.15262
1743.50000    0.17297
1744.00000    0.18868
1744.50000    0.19943
1745.00000    0.20506
1745.50000    0.20555
1746.00000    0.20105
1746.50000    0.19184
1747.00000    0.17835
1747.50000    0.16109
1748.00000    0.14070
1748.50000    0.11785
1749.00000    0.09330
1749.50000    0.06778
1750.00000    0.04204
1750.50000    0.01680
1751.00000   -0.00729
1751.50000   -0.02964
1752.00000   -0.04977
1752.50000   -0.06728
1753.00000   -0.08189
1753.50000   -0.09345
1754.00000   -0.10188
1754.50000   -0.10722
1755.00000   -0.10962
1755.50000   -0.10926
1756.00000   -0.10641
1756.50000   -0.10138
1757.00000   -0.09448
1757.50000   -0.08605
1758.00000   -0.07641
1758.50000   -0.06586
1759.00000   -0.05466
1759.50000   -0.04305
1760.00000   -0.03122
1760.50000   -0.01935
1761.00000   -0.00755
1761.50000    0.00405
1762.00000    0.01537
1762.50000    0.02629
1763.00000    0.03670
1763.50000    0.04648
1764.00000    0.05546
1764.50000    0.06346
1765.00000    0.07025
1765.50000    0.07560
1766.00000    0.07922
1766.50000    0.08086
1767.00000    0.08025
1767.50000    0.07715
1768.00000    0.07139
1768.50000    0.06282
1769.00000    0.05140
1769.50000    0.03717
1770.00000    0.02027
1770.50000    0.00092
1771.00000   -0.02055
1771.50000   -0.04374
1772.00000   -0.06816
1772.50000   -0.09328
1773.00000   -0.11856
1773.50000   -0.14344
1774.00000   -0.16737
1774.50000   -0.18986
1775.00000   -0.21049
1775.50000   -0.22891
1776.00000   -0.24487
1776.50000   -0.25822
1777.00000   -0.26892
1777.50000   -0.27701
1778.00000   -0.28260
1778.50000   -0.28590
1779.00000   -0.28712
1779.50000   -0.28650
1780.00000   -0.28429
1780.50000   -0.28068
1781.00000   -0.27583
1781.50000   -0.26980
1782.00000   -0.26261
1782.50000   -0.25417
1783.00000   -0.24435
1783.50000   -0.23293
1784.00000   -0.21965
1784.50000   -0.20425
1785.00000   -0.18644
1785.50000   -0.16599
1786.00000   -0.14272
1786.50000   -0.11653
1787.00000   -0.08743
1787.50000   -0.05554
1788.00000   -0.02111
1788.50000    0.01549
1789.00000    0.05374
1789.50000    0.09303
1790.00000    0.13267
1790.50000    0.17187
1791.00000    0.20985
1791.50000    0.24577
1792.00000    0.27886
1792.50000    0.30840
1793.00000    0.33376
1793.50000    0.35440
1794.00000    0.36995
1794.50000    0.38015
1795.00000    0.38493
1795.50000    0.38435
1796.00000    0.37860
1796.50000    0.36803
1797.00000    0.35308
1797.50000    0.33427
1798.00000    0.31220
1798.50000    0.28748
1799.00000    0.26074
1799.50000    0.23261
1800.00000    0.20364
1800.50000    0.17438
1801.00000    0.14527
1801.50000    0.11671
1802.00000    0.08899
1802.50000    0.06234
1803.00000    0.03691
1803.50000    0.01276
1804.00000   -0.01009
1804.50000   -0.03168
1805.00000   -0.05211
1805.50000   -0.07150
1806.00000   -0.08999
1806.50000   -0.10772
1807.00000   -0.12487
1807.50000   -0.14158
1808.00000   -0.15799
1808.50000   -0.17421
1809.00000   -0.19036
1809.50000   -0.20650
1810.00000   -0.22268
1810.50000   -0.23890
1811.00000   -0.25516
1811.50000   -0.27140
1812.00000   -0.28753
1812.50000   -0.30344
1813.00000   -0.31898
1813.50000   -0.33395
1814.00000   -0.34815
1814.50000   -0.36132
1815.00000   -0.37321
1815.50000   -0.38352
1816.00000   -0.39194
1816.50000   -0.39817
1817.00000   -0.40189
1817.50000   -0.40281
1818.00000   -0.40064
1818.50000   -0.39513
1819.00000   -0.38606
1819.50000   -0.37327
1820.00000   -0.35664
1820.50000   -0.33613
1821.00000   -0.31177
1821.50000   -0.28368
1822.00000   -0.25202
1822.50000   -0.21709
1823.00000   -0.17922
1823.50000   -0.13885
1824.00000   -0.09647
1824.50000   -0.05265
1825.00000   -0.00799
1825.50000    0.03686
1826.00000    0.08124
1826.50000    0.12449
1827.00000    0.16595
1827.50000    0.20501
1828.00000    0.24111
1828.50000    0.27376
1829.00000    0.30254
1829.50000    0.32714
1830.00000    0.34735
1830.50000    0.36307
1831.00000    0.37431
1831.50000    0.38120
1832.00000    0.38398
1832.50000    0.38296
1833.00000    0.37856
1833.50000    0.37126
1834.00000    0.36160
1834.50000    0.35015
1835.00000    0.33749
1835.50000    0.32420
1836.00000    0.31084
1836.50000    0.29791
1837.00000    0.28588
1837.50000    0.27512
1838.00000    0.26594
1838.50000    0.25856
1839.00000    0.25310
1839.50000    0.24961
1840.00000    0.24803
1840.50000    0.24825
1841.00000    0.25006
1841.50000    0.25321
1842.00000    0.25741
1842.50000    0.26232
1843.00000    0.26758
1843.50000    0.27284
1844.00000    0.27772
1844.50000    0.28187
1845.00000    0.28494
1845.50000    0.28663
1846.00000    0.28664
1846.50000    0.28471
1847.00000    0.28060
1847.50000    0.27410
1848.00000    0.26504
1848.50000    0.25327
1849.00000    0.23867
1849.50000    0.22116
1850.00000    0.20067
1850.50000    0.17718
1851.00000    0.15070
1851.50000    0.12127
1852.00000    0.08899
1852.50000    0.05399
1853.00000    0.01645
1853.50000   -0.02338
1854.00000   -0.06521
1854.50000   -0.10869
1855.00000   -0.15340
1855.50000   -0.19887
1856.00000   -0.24458
1856.50000   -0.28996
1857.00000   -0.33440
1857.50000   -0.37725
1858.00000   -0.41785
1858.50000   -0.45555
1859.00000   -0.48967
1859.50000   -0.51959
1860.00000   -0.54470
1860.50000   -0.56447
1861.00000   -0.57843
1861.50000   -0.58618
1862.00000   -0.58742
1862.50000   -0.58197
1863.00000   -0.56974
1863.50000   -0.55075
1864.00000   -0.52515
1864.50000   -0.49322
1865.00000   -0.45531
1865.50000   -0.41191
1866.00000   -0.36360
1866.50000   -0.31105
1867.00000   -0.25498
1867.50000   -0.19621
1868.00000   -0.13558
1868.50000   -0.07396
1869.00000   -0.01225
1869.50000    0.04867
1870.00000    0.10793
1870.50000    0.16468
1871.00000    0.21813
1871.50000    0.26754
1872.00000    0.31226
1872.50000    0.35170
1873.00000    0.38537
1873.50000    0.41289
1874.00000    0.43395
1874.50000    0.44840
1875.00000    0.45617
1875.50000    0.45732
1876.00000    0.45200
1876.50000    0.44050
1877.00000    0.42321
1877.50000    0.40059
1878.00000    0.37322
1878.50000    0.34175
1879.00000    0.30686
1879.50000    0.26933
1880.00000    0.22992
1880.50000    0.18943
1881.00000    0.14864
1881.50000    0.10832
1882.00000    0.06916
1882.50000    0.03181
1883.00000   -0.00315
1883.50000   -0.03526
1884.00000   -0.06415
1884.50000   -0.08956
1885.00000   -0.11135
1885.50000   -0.12949
1886.00000   -0.14406
1886.50000   -0.15523
1887.00000   -0.16330
1887.50000   -0.16860
1888.00000   -0.17153
1888.50000   -0.17255
1889.00000   -0.17212
1889.50000   -0.17070
1890.00000   -0.16875
1890.50000   -0.16667
1891.00000   -0.16484
1891.50000   -0.16356
1892.00000   -0.16307
1892.50000   -0.16355
1893.00000   -0.16509
1893.50000   -0.16772
1894.00000   -0.17141
1894.50000   -0.17608
1895.00000   -0.18158
1895.50000   -0.18776
1896.00000   -0.19442
1896.50000   -0.20137
1897.00000   -0.20840
1897.50000   -0.21531
1898.00000   -0.22192
1898.50000   -0.22805
1899.00000   -0.23357
1899.50000   -0.23835
1900.00000   -0.24229
1900.50000   -0.24533
1901.00000   -0.24740
1901.50000   -0.24847
1902.00000   -0.24852
1902.50000   -0.24753
1903.00000   -0.24549
1903.50000   -0.24238
1904.00000   -0.23820
1904.50000   -0.23292
1905.00000   -0.22651
1905.50000   -0.21894
1906.00000   -0.21016
1906.50000   -0.20012
1907.00000   -0.18876
1907.50000   -0.17602
1908.00000   -0.16183
1908.50000   -0.14616
1909.00000   -0.12895
1909.50000   -0.11021
1910.00000   -0.08992
1910.50000   -0.06812
1911.00000   -0.04491
1911.50000   -0.02037
1912.00000    0.00532
1912.50000    0.03197
1913.00000    0.05933
1913.50000    0.08713
1914.00000    0.11505
1914.50000    0.14276
1915.00000    0.16990
1915.50000    0.19611
1916.00000    0.22104
1916.50000    0.24436
1917.00000    0.26577
1917.50000    0.28503
1918.00000    0.30194
1918.50000    0.31635
1919.00000    0.32822
1919.50000    0.33753
1920.00000    0.34437
1920.50000    0.34887
1921.00000    0.35122
1921.50000    0.35167
1922.00000    0.35047
1922.50000    0.34791
1923.00000    0.34428
1923.50000    0.33983
1924.00000    0.33482
1924.50000    0.32943
1925.00000    0.32382
1925.50000    0.31806
1926.00000    0.31221
1926.50000    0.30624
1927.00000    0.30007
1927.50000    0.29362
1928.00000    0.28674
1928.50000    0.27930
1929.00000    0.27117
1929.50000    0.26223
1930.00000    0.25243
1930.50000    0.24172
1931.00000    0.23013
1931.50000    0.21775
1932.00000    0.20472
1932.50000    0.19122
1933.00000    0.17750
1933.50000    0.16382
1934.00000    0.15046
1934.50000    0.13770
1935.00000    0.12580
1935.50000    0.11501
1936.00000    0.10550
1936.50000    0.09741
1937.00000    0.09079
1937.50000    0.08563
1938.00000    0.08184
1938.50000    0.07926
1939.00000    0.07768
1939.50000    0.07683
1940.00000    0.07638
1940.50000    0.07601
1941.00000    0.07536
1941.50000    0.07411
1942.00000    0.07194
1942.50000    0.06857
1943.00000    0.06378
1943.50000    0.05741
1944.00000    0.04934
1944.50000    0.03955
1945.00000    0.02806
1945.50000    0.01497
1946.00000    0.00043
1946.50000   -0.01537
1947.00000   -0.03220
1947.50000   -0.04981
1948.00000   -0.06793
1948.50000   -0.08630
1949.00000   -0.10467
1949.50000   -0.12283
1950.00000   -0.14058
1950.50000   -0.15777
1951.00000   -0.17430
1951.50000   -0.19010
1952.00000   -0.20516
1952.50000   -0.21950
1953.00000   -0.23317
1953.50000   -0.24628
1954.00000   -0.25892
1954.50000   -0.27121
1955.00000   -0.28326
1955.50000   -0.29516
1956.00000   -0.30698
1956.50000   -0.31876
1957.00000   -0.33047
1957.50000   -0.34206
1958.00000   -0.35341
1958.50000   -0.36432
1959.00000   -0.37459
1959.50000   -0.38392
1960.00000   -0.39199
1960.50000   -0.39847
1961.00000   -0.40299
1961.50000   -0.40521
1962.00000   -0.40479
1962.50000   -0.40145
1963.00000   -0.39494
1963.50000   -0.38512
1964.00000   -0.37189
1964.50000   -0.35529
1965.00000   -0.33542
1965.50000   -0.31251
1966.00000   -0.28685
1966.50000   -0.25884
1967.00000   -0.22894
1967.50000   -0.19766
1968.00000   -0.16552
1968.50000   -0.13309
1969.00000   -0.10087
1969.50000   -0.06936
1970.00000   -0.03898
1970.50000   -0.01008
1971.00000    0.01710
1971.50000    0.04241
1972.00000    0.06578
1972.50000    0.08728
1973.00000    0.10704
1973.50000    0.12529
1974.00000    0.14232
1974.50000    0.15846
1975.00000    0.17407
1975.50000    0.18951
1976.00000    0.20513
1976.50000    0.22124
1977.00000    0.23810
1977.50000    0.25591
1978.00000    0.27479
1978.50000    0.29477
1979.00000    0.31584
1979.50000    0.33786
1980.00000    0.36067
1980.50000    0.38404
1981.00000    0.40769
1981.50000    0.43132
1982.00000    0.45462
1982.50000    0.47731
1983.00000    0.49911
1983.50000    0.51980
1984.00000    0.53921
1984.50000    0.55724
1985.00000    0.57384
1985.50000    0.58906
1986.00000    0.60302
1986.50000    0.61590
1987.00000    0.62793
1987.50000    0.63941
1988.00000    0.65064
1988.50000    0.66196
1989.00000    0.67370
1989.50000    0.68613
1990.00000    0.69951
1990.50000    0.71403
1991.00000    0.72978
1991.50000    0.74677
1992.00000    0.76491
1992.50000    0.78399
1993.00000    0.80371
1993.50000    0.82366
1994.00000    0.84335
1994.50000    0.86220
1995.00000    0.87960
1995.50000    0.89488
1996.00000    0.90741
1996.50000    0.91654
1997.00000    0.92170
1997.50000    0.92238
1998.00000    0.91818
1998.50000    0.90882
1999.00000    0.89415
1999.50000    0.87417
2000.00000    0.84903
2000.50000    0.81901
2001.00000    0.78454
2001.50000    0.74617
2002.00000    0.70454
2002.50000    0.66038
2003.00000    0.61445
2003.50000    0.56753
2004.00000    0.52041
2004.50000    0.47383
2005.00000    0.42844
2005.50000    0.38485
2006.00000    0.34352
2006.50000    0.30483
2007.00000    0.26900
2007.50000    0.23614
2008.00000    0.20625
2008.50000    0.17919
2009.00000    0.15473
2009.50000    0.13255
2010.00000    0.11229
2010.50000    0.09351
2011.00000    0.07576
2011.50000    0.05860
2012.00000    0.04158
2012.50000    0.02430
2013.00000    0.00641
2013.50000   -0.01237
2014.00000   -0.03227
2014.50000   -0.05341
2015.00000   -0.07585
2015.50000   -0.09952
2016.00000   -0.12429
2016.50000   -0.14993
2017.00000   -0.17612
2017.50000   -0.20248
2018.00000   -0.22853
2018.50000   -0.25377
2019.00000   -0.27763
2019.50000   -0.29951
2020.00000   -0.31884
2020.50000   -0.33503
2021.00000   -0.34753
2021.50000   -0.35585
2022.00000   -0.35958
2022.50000   -0.35841
2023.00000   -0.35215
2023.50000   -0.34074
2024.00000   -0.32424
2024.50000   -0.30290
2025.00000   -0.27708
2025.50000   -0.24732
2026.00000   -0.21426
2026.50000   -0.17868
2027.00000   -0.14144
2027.50000   -0.10347
2028.00000   -0.06572
2028.50000   -0.02915
2029.00000    0.00533
2029.50000    0.03688
2030.00000    0.06477
2030.50000    0.08839
2031.00000    0.10732
2031.50000    0.12129
2032.00000    0.13024
2032.50000    0.13428
2033.00000    0.13374
2033.50000    0.12907
2034.00000    0.12090
2034.50000    0.10997
2035.00000    0.09712
2035.50000    0.08321
2036.00000    0.06915
2036.50000    0.05580
2037.00000    0.04397
2037.50000    0.03439
2038.00000    0.02765
2038.50000    0.02421
2039.00000    0.02440
2039.50000    0.02837
2040.00000    0.03610
2040.50000    0.04745
2041.00000    0.06211
2041.50000    0.07966
2042.00000    0.09957
2042.50000    0.12125
2043.00000    0.14402
2043.50000    0.16723
2044.00000    0.19018
2044.50000    0.21222
2045.00000    0.23275
2045.50000    0.25123
2046.00000    0.26719
2046.50000    0.28025
2047.00000    0.29014
2047.50000    0.29665
2048.00000    0.29969
2048.50000    0.29923
2049.00000    0.29534
2049.50000    0.28811
2050.00000    0.27771
2050.50000    0.26435
2051.00000    0.24823
2051.50000    0.22959
2052.00000    0.20867
2052.50000    0.18568
2053.00000    0.16086
2053.50000    0.13440
2054.00000    0.10651
2054.50000    0.07738
2055.00000    0.04719
2055.50000    0.01614
2056.00000   -0.01558
2056.50000   -0.04773
2057.00000   -0.08009
2057.50000   -0.11239
2058.00000   -0.14431
2058.50000   -0.17554
2059.00000   -0.20571
2059.50000   -0.23446
2060.00000   -0.26139
2060.50000   -0.28611
2061.00000   -0.30823
2061.50000   -0.32740
2062.00000   -0.34329
2062.50000   -0.35562
2063.00000   -0.36418
2063.50000   -0.36882
2064.00000   -0.36945
2064.50000   -0.36608
2065.00000   -0.35879
2065.50000   -0.34773
2066.00000   -0.33312
2066.50000   -0.31523
2067.00000   -0.29439
2067.50000   -0.27093
2068.00000   -0.24524
2068.50000   -0.21766
2069.00000   -0.18856
2069.50000   -0.15827
2070.00000   -0.12708
2070.50000   -0.09526
2071.00000   -0.06302
2071.50000   -0.03055
2072.00000    0.00202
2072.50000    0.03456
2073.00000    0.06698
2073.50000    0.09919
2074.00000    0.13108
2074.50000    0.16255
2075.00000    0.19345
2075.50000    0.22358
2076.00000    0.25273
2076.50000    0.28059
2077.00000    0.30686
2077.50000    0.33116
2078.00000    0.35307
2078.50000    0.37218
2079.00000    0.38806
2079.50000    0.40029
2080.00000    0.40850
2080.50000    0.41236
2081.00000    0.41163
2081.50000    0.40617
2082.00000    0.39594
2082.50000    0.38103
2083.00000    0.36167
2083.50000    0.33819
2084.00000    0.31109
2084.50000    0.28097
2085.00000    0.24853
2085.50000    0.21454
2086.00000    0.17985
2086.50000    0.14534
2087.00000    0.11185
2087.50000    0.08025
2088.00000    0.05128
2088.50000    0.02565
2089.00000    0.00392
2089.50000   -0.01347
2090.00000   -0.02623
2090.50000   -0.03423
2091.00000   -0.03750
2091.50000   -0.03622
2092.00000   -0.03074
2092.50000   -0.02153
2093.00000   -0.00916
2093.50000    0.00568
2094.00000    0.02226
2094.50000    0.03979
2095.00000    0.05750
2095.50000    0.07461
2096.00000    0.09042
2096.50000    0.10426
2097.00000    0.11557
2097.50000    0.12389
2098.00000    0.12886
2098.50000    0.13024
2099.00000    0.12791
2099.50000    0.12184
2100.00000    0.11212
2100.50000    0.09893
2101.00000    0.08249
2101.50000    0.06311
2102.00000    0.04113
2102.50000    0.01692
2103.00000   -0.00915
2103.50000   -0.03669
2104.00000   -0.06535
2104.50000   -0.09478
2105.00000   -0.12465
2105.50000   -0.15468
2106.00000   -0.18461
2106.50000   -0.21420
2107.00000   -0.24324
2107.50000   -0.27156
2108.00000   -0.29900
2108.50000   -0.32543
2109.00000   -0.35074
2109.50000   -0.37484
2110.00000   -0.39764
2110.50000   -0.41912
2111.00000   -0.43921
2111.50000   -0.45793
2112.00000   -0.47526
2112.50000   -0.49123
2113.00000   -0.50585
2113.50000   -0.51916
2114.00000   -0.53119
2114.50000   -0.54193
2115.00000   -0.55138
2115.50000   -0.55949
2116.00000   -0.56618
2116.50000   -0.57128
2117.00000   -0.57462
2117.50000   -0.57593
2118.00000   -0.57491
2118.50000   -0.57119
2119.00000   -0.56440
2119.50000   -0.55411
2120.00000   -0.53991
2120.50000   -0.52142
2121.00000   -0.49831
2121.50000   -0.47030
2122.00000   -0.43724
2122.50000   -0.39908
2123.00000   -0.35595
2123.50000   -0.30808
2124.00000   -0.25590
2124.50000   -0.20000
2125.00000   -0.14111
2125.50000   -0.08011
2126.00000   -0.01797
2126.50000    0.04422
2127.00000    0.10533
2127.50000    0.16422
2128.00000    0.21978
2128.50000    0.27096
2129.00000    0.31679
2129.50000    0.35646
2130.00000    0.38932
2130.50000    0.41488
2131.00000    0.43287
2131.50000    0.44320
2132.00000    0.44600
2132.50000    0.44157
2133.00000    0.43041
2133.50000    0.41315
2134.00000    0.39053
2134.50000    0.36343
2135.00000    0.33274
2135.50000    0.29942
2136.00000    0.26440
2136.50000    0.22861
2137.00000    0.19291
2137.50000    0.15808
2138.00000    0.12485
2138.50000    0.09382
2139.00000    0.06549
2139.50000    0.04027
2140.00000    0.01846
2140.50000    0.00026
2141.00000   -0.01420
2141.50000   -0.02488
2142.00000   -0.03181
2142.50000   -0.03505
2143.00000   -0.03473
2143.50000   -0.03100
2144.00000   -0.02404
2144.50000   -0.01403
2145.00000   -0.00119
2145.50000    0.01429
2146.00000    0.03217
2146.50000    0.05223
2147.00000    0.07423
2147.50000    0.09792
2148.00000    0.12303
2148.50000    0.14928
2149.00000    0.17634
2149.50000    0.20388
2150.00000    0.23153
2150.50000    0.25888
2151.00000    0.28551
2151.50000    0.31096
2152.00000    0.33477
2152.50000    0.35647
2153.00000    0.37559
2153.50000    0.39167
2154.00000    0.40429
2154.50000    0.41308
2155.00000    0.41775
2155.50000    0.41805
2156.00000    0.41386
2156.50000    0.40516
2157.00000    0.39204
2157.50000    0.37470
2158.00000    0.35348
2158.50000    0.32884
2159.00000    0.30134
2159.50000    0.27164
2160.00000    0.24050
2160.50000    0.20872
2161.00000    0.17714
2161.50000    0.14663
2162.00000    0.11803
2162.50000    0.09212
2163.00000    0.06963
2163.50000    0.05117
2164.00000    0.03724
2164.50000    0.02820
2165.00000    0.02424
2165.50000    0.02539
2166.00000    0.03151
2166.50000    0.04231
2167.00000    0.05730
2167.50000    0.07589
2168.00000    0.09733
2168.50000    0.12080
2169.00000    0.14538
2169.50000    0.17013
2170.00000    0.19410
2170.50000    0.21633
2171.00000    0.23597
2171.50000    0.25220
2172.00000    0.26435
2172.50000    0.27187
2173.00000    0.27437
2173.50000    0.27161
2174.00000    0.26354
2174.50000    0.25026
2175.00000    0.23204
2175.50000    0.20931
2176.00000    0.18260
2176.50000    0.15258
2177.00000    0.11997
2177.50000    0.08556
2178.00000    0.05012
2178.50000    0.01444
2179.00000   -0.02076
2179.50000   -0.05482
2180.00000   -0.08720
2180.50000   -0.11746
2181.00000   -0.14528
2181.50000   -0.17047
2182.00000   -0.19300
2182.50000   -0.21293
2183.00000   -0.23045
2183.50000   -0.24582
2184.00000   -0.25939
2184.50000   -0.27154
2185.00000   -0.28268
2185.50000   -0.29321
2186.00000   -0.30350
2186.50000   -0.31387
2187.00000   -0.32459
2187.50000   -0.33582
2188.00000   -0.34765
2188.50000   -0.36010
2189.00000   -0.37308
2189.50000   -0.38641
2190.00000   -0.39985
2190.50000   -0.41311
2191.00000   -0.42583
2191.50000   -0.43763
2192.00000   -0.44812
2192.50000   -0.45689
2193.00000   -0.46353
2193.50000   -0.46768
2194.00000   -0.46897
2194.50000   -0.46709
2195.00000   -0.46174
2195.50000   -0.45269
2196.00000   -0.43971
2196.50000   -0.42264
2197.00000   -0.40135
2197.50000   -0.37574
2198.00000   -0.34576
2198.50000   -0.31141
2199.00000   -0.27271
2199.50000   -0.22976
2200.00000   -0.18268
2200.50000   -0.13169
2201.00000   -0.07703
2201.50000   -0.01905
2202.00000    0.04184
2202.50000    0.10517
2203.00000    0.17037
2203.50000    0.23681
2204.00000    0.30377
2204.50000    0.37049
2205.00000    0.43614
2205.50000    0.49987
2206.00000    0.56081
2206.50000    0.61806
2207.00000    0.67078
2207.50000    0.71814
2208.00000    0.75939
2208.50000    0.79385
2209.00000    0.82096
2209.50000    0.84027
2210.00000    0.85145
2210.50000    0.85435
2211.00000    0.84894
2211.50000    0.83537
2212.00000    0.81392
2212.50000    0.78504
2213.00000    0.74930
2213.50000    0.70741
2214.00000    0.66017
2214.50000    0.60846
2215.00000    0.55324
2215.50000    0.49548
2216.00000    0.43618
2216.50000    0.37631
2217.00000    0.31679
2217.50000    0.25848
2218.00000    0.20216
2218.50000    0.14849
2219.00000    0.09802
2219.50000    0.05117
2220.00000    0.00824
2220.50000   -0.03060
2221.00000   -0.06529
2221.50000   -0.09588
2222.00000   -0.12249
2222.50000   -0.14534
2223.00000   -0.16466
2223.50000   -0.18072
2224.00000   -0.19377
2224.50000   -0.20405
2225.00000   -0.21175
2225.50000   -0.21701
2226.00000   -0.21989
2226.50000   -0.22040
2227.00000   -0.21848
2227.50000   -0.21398
2228.00000   -0.20674
2228.50000   -0.19653
2229.00000   -0.18315
2229.50000   -0.16636
2230.00000   -0.14599
2230.50000   -0.12190
2231.00000   -0.09401
2231.50000   -0.06236
2232.00000   -0.02706
2232.50000    0.01168
2233.00000    0.05352
2233.50000    0.09805
2234.00000    0.14474
2234.50000    0.19299
2235.00000    0.24216
2235.50000    0.29153
2236.00000    0.34040
2236.50000    0.38805
2237.00000    0.43377
2237.50000    0.47692
2238.00000    0.51689
2238.50000    0.55314
2239.00000    0.58524
2239.50000    0.61280
2240.00000    0.63555
2240.50000    0.65330
2241.00000    0.66594
2241.50000    0.67344
2242.00000    0.67586
2242.50000    0.67331
2243.00000    0.66598
2243.50000    0.65411
2244.00000    0.63801
2244.50000    0.61801
2245.00000    0.59450
2245.50000    0.56793
2246.00000    0.53876
2246.50000    0.50748
2247.00000    0.47462
2247.50000    0.44073
2248.00000    0.40634
2248.50000    0.37201
2249.00000    0.33826
2249.50000    0.30560
2250.00000    0.27448
2250.50000    0.24533
2251.00000    0.21847
2251.50000    0.19418
2252.00000    0.17265
2252.50000    0.15396
2253.00000    0.13812
2253.50000    0.12505
2254.00000    0.11456
2254.50000    0.10641
2255.00000    0.10029
2255.50000    0.09582
2256.00000    0.09260
2256.50000    0.09023
2257.00000    0.08827
2257.50000    0.08635
2258.00000    0.08410
2258.50000    0.08120
2259.00000    0.07743
2259.50000    0.07259
2260.00000    0.06659
2260.50000    0.05940
2261.00000    0.05108
2261.50000    0.04174
2262.00000    0.03156
2262.50000    0.02076
2263.00000    0.00960
2263.50000   -0.00164
2264.00000   -0.01270
2264.50000   -0.02329
2265.00000   -0.03318
2265.50000   -0.04218
2266.00000   -0.05012
2266.50000   -0.05692
2267.00000   -0.06254
2267.50000   -0.06702
2268.00000   -0.07047
2268.50000   -0.07301
2269.00000   -0.07487
2269.50000   -0.07626
2270.00000   -0.07744
2270.50000   -0.07865
2271.00000   -0.08013
2271.50000   -0.08207
2272.00000   -0.08462
2272.50000   -0.08784
2273.00000   -0.09173
2273.50000   -0.09620
2274.00000   -0.10104
2274.50000   -0.10599
2275.00000   -0.11067
2275.50000   -0.11466
2276.00000   -0.11747
2276.50000   -0.11859
2277.00000   -0.11752
2277.50000   -0.11379
2278.00000   -0.10698
2278.50000   -0.09678
2279.00000   -0.08298
2279.50000   -0.06551
2280.00000   -0.04447
2280.50000   -0.02010
2281.00000    0.00716
2281.50000    0.03676
2282.00000    0.06798
2282.50000    0.09999
2283.00000    0.13188
2283.50000    0.16268
2284.00000    0.19141
2284.50000    0.21712
2285.00000    0.23894
2285.50000    0.25608
2286.00000    0.26788
2286.50000    0.27389
2287.00000    0.27377
2287.50000    0.26744
2288.00000    0.25496
2288.50000    0.23661
2289.00000    0.21283
2289.50000    0.18422
2290.00000    0.15153
2290.50000    0.11557
2291.00000    0.07724
2291.50000    0.03750
2292.00000   -0.00271
2292.50000   -0.04248
2293.00000   -0.08093
2293.50000   -0.11725
2294.00000   -0.15073
2294.50000   -0.18077
2295.00000   -0.20686
2295.50000   -0.22862
2296.00000   -0.24581
2296.50000   -0.25826
2297.00000   -0.26597
2297.50000   -0.26901
2298.00000   -0.26755
2298.50000   -0.26189
2299.00000   -0.25237
2299.50000   -0.23943
2300.00000   -0.22357
2300.50000   -0.20533
2301.00000   -0.18531
2301.50000   -0.16411
2302.00000   -0.14235
2302.50000   -0.12067
2303.00000   -0.09965
2303.50000   -0.07986
2304.00000   -0.06181
2304.50000   -0.04595
2305.00000   -0.03265
2305.50000   -0.02219
2306.00000   -0.01473
2306.50000   -0.01036
2307.00000   -0.00904
2307.50000   -0.01064
2308.00000   -0.01491
2308.50000   -0.02155
2309.00000   -0.03015
2309.50000   -0.04026
2310.00000   -0.05138
2310.50000   -0.06299
2311.00000   -0.07456
2311.50000   -0.08558
2312.00000   -0.09557
2312.50000   -0.10408
2313.00000   -0.11075
2313.50000   -0.11524
2314.00000   -0.11734
2314.50000   -0.11687
2315.00000   -0.11377
2315.50000   -0.10803
2316.00000   -0.09974
2316.50000   -0.08904
2317.00000   -0.07615
2317.50000   -0.06134
2318.00000   -0.04493
2318.50000   -0.02730
2319.00000   -0.00883
2319.50000    0.01005
2320.00000    0.02892
2320.50000    0.04735
2321.00000    0.06492
2321.50000    0.08123
2322.00000    0.09591
2322.50000    0.10865
2323.00000    0.11916
2323.50000    0.12723
2324.00000    0.13273
2324.50000    0.13556
2325.00000    0.13575
2325.50000    0.13337
2326.00000    0.12858
2326.50000    0.12161
2327.00000    0.11273
2327.50000    0.10231
2328.00000    0.09073
2328.50000    0.07840
2329.00000    0.06574
2329.50000    0.05320
2330.00000    0.04120
2330.50000    0.03011
2331.00000    0.02030
2331.50000    0.01209
2332.00000    0.00572
2332.50000    0.00140
2333.00000   -0.00073
2333.50000   -0.00057
2334.00000    0.00190
2334.50000    0.00665
2335.00000    0.01360
2335.50000    0.02264
2336.00000    0.03359
2336.50000    0.04625
2337.00000    0.06037
2337.50000    0.07568
2338.00000    0.09186
2338.50000    0.10858
2339.00000    0.12547
2339.50000    0.14217
2340.00000    0.15828
2340.50000    0.17340
2341.00000    0.18715
2341.50000    0.19913
2342.00000    0.20900
2342.50000    0.21645
2343.00000    0.22120
2343.50000    0.22306
2344.00000    0.22190
2344.50000    0.21765
2345.00000    0.21035
2345.50000    0.20012
2346.00000    0.18715
2346.50000    0.17171
2347.00000    0.15414
2347.50000    0.13482
2348.00000    0.11417
2348.50000    0.09262
2349.00000    0.07062
2349.50000    0.04856
2350.00000    0.02682
2350.50000    0.00573
2351.00000   -0.01445
2351.50000   -0.03352
2352.00000   -0.05137
2352.50000   -0.06794
2353.00000   -0.08324
2353.50000   -0.09733
2354.00000   -0.11031
2354.50000   -0.12230
2355.00000   -0.13346
2355.50000   -0.14391
2356.00000   -0.15379
2356.50000   -0.16317
2357.00000   -0.17213
2357.50000   -0.18066
2358.00000   -0.18873
2358.50000   -0.19625
2359.00000   -0.20309
2359.50000   -0.20906
2360.00000   -0.21397
2360.50000   -0.21757
2361.00000   -0.21963
2361.50000   -0.21989
2362.00000   -0.21813
2362.50000   -0.21414
2363.00000   -0.20776
2363.50000   -0.19888
2364.00000   -0.18745
2364.50000   -0.17349
2365.00000   -0.15712
2365.50000   -0.13852
2366.00000   -0.11798
2366.50000   -0.09586
2367.00000   -0.07260
2367.50000   -0.04874
2368.00000   -0.02484
2368.50000   -0.00153
2369.00000    0.02055
2369.50000    0.04076
2370.00000    0.05847
2370.50000    0.07313
2371.00000    0.08424
2371.50000    0.09143
2372.00000    0.09443
2372.50000    0.09312
2373.00000    0.08753
2373.50000    0.07786
2374.00000    0.06444
2374.50000    0.04778
2375.00000    0.02849
2375.50000    0.00729
2376.00000   -0.01499
2376.50000   -0.03752
2377.00000   -0.05942
2377.50000   -0.07986
2378.00000   -0.09803
2378.50000   -0.11323
2379.00000   -0.12486
2379.50000   -0.13246
2380.00000   -0.13568
2380.50000   -0.13433
2381.00000   -0.12837
2381.50000   -0.11789
2382.00000   -0.10308
2382.50000   -0.08426
2383.00000   -0.06184
2383.50000   -0.03627
2384.00000   -0.00807
2384.50000    0.02220
2385.00000    0.05397
2385.50000    0.08666
2386.00000    0.11968
2386.50000    0.15243
2387.00000    0.18432
2387.50000    0.21475
2388.00000    0.24311
2388.50000    0.26881
2389.00000    0.29122
2389.50000    0.30977
2390.00000    0.32386
2390.50000    0.33294
2391.00000    0.33654
2391.50000    0.33421
2392.00000    0.32566
2392.50000    0.31067
2393.00000    0.28921
2393.50000    0.26140
2394.00000    0.22755
2394.50000    0.18816
2395.00000    0.14393
2395.50000    0.09574
2396.00000    0.04465
2396.50000   -0.00816
2397.00000   -0.06138
2397.50000   -0.11366
2398.00000   -0.16364
2398.50000   -0.20997
2399.00000   -0.25143
2399.50000   -0.28690
2400.00000   -0.31546
2400.50000   -0.33640
2401.00000   -0.34925
2401.50000   -0.35381
2402.00000   -0.35014
2402.50000   -0.33855
2403.00000   -0.31959
2403.50000   -0.29402
2404.00000   -0.26278
2404.50000   -0.22695
2405.00000   -0.18768
2405.50000   -0.14617
2406.00000   -0.10363
2406.50000   -0.06119
2407.00000   -0.01993
2407.50000    0.01922
2408.00000    0.05546
2408.50000    0.08813
2409.00000    0.11677
2409.50000    0.14106
2410.00000    0.16085
2410.50000    0.17612
2411.00000    0.18701
2411.50000    0.19374
2412.00000    0.19662
2412.50000    0.19603
2413.00000    0.19238
2413.50000    0.18613
2414.00000    0.17770
2414.50000    0.16752
2415.00000    0.15599
2415.50000    0.14349
2416.00000    0.13035
2416.50000    0.11687
2417.00000    0.10329
2417.50000    0.08982
2418.00000    0.07664
2418.50000    0.06386
2419.00000    0.05159
2419.50000    0.03988
2420.00000    0.02874
2420.50000    0.01816
2421.00000    0.00808
2421.50000   -0.00159
2422.00000   -0.01097
2422.50000   -0.02021
2423.00000   -0.02949
2423.50000   -0.03901
2424.00000   -0.04897
2424.50000   -0.05960
2425.00000   -0.07108
2425.50000   -0.08359
2426.00000   -0.09727
2426.50000   -0.11219
2427.00000   -0.12837
2427.50000   -0.14573
2428.00000   -0.16414
2428.50000   -0.18333
2429.00000   -0.20296
2429.50000   -0.22260
2430.00000   -0.24173
2430.50000   -0.25977
2431.00000   -0.27607
2431.50000   -0.28998
2432.00000   -0.30083
2432.50000   -0.30799
2433.00000   -0.31086
2433.50000   -0.30895
2434.00000   -0.30186
2434.50000   -0.28934
2435.00000   -0.27126
2435.50000   -0.24769
2436.00000   -0.21882
2436.50000   -0.18505
2437.00000   -0.14689
2437.50000   -0.10504
2438.00000   -0.06028
2438.50000   -0.01350
2439.00000    0.03432
2439.50000    0.08220
2440.00000    0.12914
2440.50000    0.17416
2441.00000    0.21635
2441.50000    0.25488
2442.00000    0.28904
2442.50000    0.31824
2443.00000    0.34203
2443.50000    0.36011
2444.00000    0.37236
2444.50000    0.37877
2445.00000    0.37950
2445.50000    0.37482
2446.00000    0.36512
2446.50000    0.35090
2447.00000    0.33270
2447.50000    0.31113
2448.00000    0.28682
2448.50000    0.26038
2449.00000    0.23242
2449.50000    0.20350
2450.00000    0.17415
2450.50000    0.14479
2451.00000    0.11579
2451.50000    0.08743
2452.00000    0.05993
2452.50000    0.03340
2453.00000    0.00791
2453.50000   -0.01654
2454.00000   -0.03998
2454.50000   -0.06246
2455.00000   -0.08404
2455.50000   -0.10480
2456.00000   -0.12475
2456.50000   -0.14388
2457.00000   -0.16216
2457.50000   -0.17947
2458.00000   -0.19566
2458.50000   -0.21052
2459.00000   -0.22381
2459.50000   -0.23526
2460.00000   -0.24457
2460.50000   -0.25147
2461.00000   -0.25567
2461.50000   -0.25696
2462.00000   -0.25513
2462.50000   -0.25008
2463.00000   -0.24173
2463.50000   -0.23012
2464.00000   -0.21531
2464.50000   -0.19748
2465.00000   -0.17680
2465.50000   -0.15353
2466.00000   -0.12792
2466.50000   -0.10025
2467.00000   -0.07075
2467.50000   -0.03967
2468.00000   -0.00717
2468.50000    0.02659
2469.00000    0.06155
2469.50000    0.09766
2470.00000    0.13494
2470.50000    0.17344
2471.00000    0.21320
2471.50000    0.25431
2472.00000    0.29681
2472.50000    0.34070
2473.00000    0.38594
2473.50000    0.43242
2474.00000    0.47995
2474.50000    0.52826
2475.00000    0.57698
2475.50000    0.62567
2476.00000    0.67384
2476.50000    0.72089
2477.00000    0.76624
2477.50000    0.80922
2478.00000    0.84921
2478.50000    0.88556
2479.00000    0.91767
2479.50000    0.94497
2480.00000    0.96696
2480.50000    0.98319
2481.00000    0.99331
2481.50000    0.99702
2482.00000    0.99411
2482.50000    0.98447
2483.00000    0.96805
2483.50000    0.94490
2484.00000    0.91514
2484.50000    0.87900
2485.00000    0.83676
2485.50000    0.78881
2486.00000    0.73562
2486.50000    0.67775
2487.00000    0.61584
2487.50000    0.55061
2488.00000    0.48286
2488.50000    0.41344
2489.00000    0.34328
2489.50000    0.27332
2490.00000    0.20455
2490.50000    0.13793
2491.00000    0.07441
2491.50000    0.01490
2492.00000   -0.03977
2492.50000   -0.08887
2493.00000   -0.13177
2493.50000   -0.16797
2494.00000   -0.19714
2494.50000   -0.21907
2495.00000   -0.23372
2495.50000   -0.24122
2496.00000   -0.24183
2496.50000   -0.23595
2497.00000   -0.22410
2497.50000   -0.20692
2498.00000   -0.18512
2498.50000   -0.15946
2499.00000   -0.13075
2499.50000   -0.09979
2500.00000   -0.06740
2500.50000   -0.03433
2501.00000   -0.00133
2501.50000    0.03097
2502.00000    0.06198
2502.50000    0.09119
2503.00000    0.11822
2503.50000    0.14273
2504.00000    0.16452
2504.50000    0.18343
2505.00000    0.19943
2505.50000    0.21251
2506.00000    0.22276
2506.50000    0.23031
2507.00000    0.23530
2507.50000    0.23792
2508.00000    0.23838
2508.50000    0.23685
2509.00000    0.23353
2509.50000    0.22857
2510.00000    0.22212
2510.50000    0.21426
2511.00000    0.20507
2511.50000    0.19458
2512.00000    0.18280
2512.50000    0.16971
2513.00000    0.15526
2513.50000    0.13940
2514.00000    0.12209
2514.50000    0.10327
2515.00000    0.08292
2515.50000    0.06103
2516.00000    0.03764
2516.50000    0.01282
2517.00000   -0.01333
2517.50000   -0.04065
2518.00000   -0.06893
2518.50000   -0.09793
2519.00000   -0.12736
2519.50000   -0.15691
2520.00000   -0.18623
2520.50000   -0.21493
2521.00000   -0.24265
2521.50000   -0.26897
2522.00000   -0.29352
2522.50000   -0.31590
2523.00000   -0.33577
2523.50000   -0.35278
2524.00000   -0.36663
2524.50000   -0.37706
2525.00000   -0.38386
2525.50000   -0.38687
2526.00000   -0.38600
2526.50000   -0.38120
2527.00000   -0.37252
2527.50000   -0.36003
2528.00000   -0.34392
2528.50000   -0.32439
2529.00000   -0.30174
2529.50000   -0.27630
2530.00000   -0.24846
2530.50000   -0.21862
2531.00000   -0.18723
2531.50000   -0.15474
2532.00000   -0.12159
2532.50000   -0.08821
2533.00000   -0.05502
2533.50000   -0.02238
2534.00000    0.00938
2534.50000    0.03997
2535.00000    0.06919
2535.50000    0.09684
2536.00000    0.12283
2536.50000    0.14709
2537.00000    0.16959
2537.50000    0.19037
2538.00000    0.20946
2538.50000    0.22693
2539.00000    0.24286
2539.50000    0.25735
2540.00000    0.27046
2540.50000    0.28226
2541.00000    0.29280
2541.50000    0.30211
2542.00000    0.31018
2542.50000    0.31699
2543.00000    0.32249
2543.50000    0.32660
2544.00000    0.32923
2544.50000    0.33025
2545.00000    0.32956
2545.50000    0.32702
2546.00000    0.32249
2546.50000    0.31587
2547.00000    0.30705
2547.50000    0.29596
2548.00000    0.28256
2548.50000    0.26685
2549.00000    0.24886
2549.50000    0.22869
2550.00000    0.20649
2550.50000    0.18245
2551.00000    0.15681
2551.50000    0.12987
2552.00000    0.10195
2552.50000    0.07340
2553.00000    0.04461
2553.50000    0.01594
2554.00000   -0.01222
2554.50000   -0.03952
2555.00000   -0.06563
2555.50000   -0.09028
2556.00000   -0.11321
2556.50000   -0.13423
2557.00000   -0.15321
2557.50000   -0.17006
2558.00000   -0.18471
2558.50000   -0.19718
2559.00000   -0.20745
2559.50000   -0.21558
2560.00000   -0.22160
2560.50000   -0.22555
2561.00000   -0.22744
2561.50000   -0.22728
2562.00000   -0.22505
2562.50000   -0.22070
2563.00000   -0.21418
2563.50000   -0.20539
2564.00000   -0.19425
2564.50000   -0.18065
2565.00000   -0.16452
2565.50000   -0.14578
2566.00000   -0.12438
2566.50000   -0.10032
2567.00000   -0.07362
2567.50000   -0.04436
2568.00000   -0.01264
2568.50000    0.02136
2569.00000    0.05745
2569.50000    0.09540
2570.00000    0.13494
2570.50000    0.17577
2571.00000    0.21761
2571.50000    0.26013
2572.00000    0.30301
2572.50000    0.34594
2573.00000    0.38860
2573.50000    0.43068
2574.00000    0.47188
2574.50000    0.51190
2575.00000    0.55046
2575.50000    0.58728
2576.00000    0.62212
2576.50000    0.65472
2577.00000    0.68489
2577.50000    0.71241
2578.00000    0.73715
2578.50000    0.75898
2579.00000    0.77783
2579.50000    0.79368
2580.00000    0.80656
2580.50000    0.81654
2581.00000    0.82378
2581.50000    0.82843
2582.00000    0.83073
2582.50000    0.83092
2583.00000    0.82926
2583.50000    0.82601
2584.00000    0.82142
2584.50000    0.81571
2585.00000    0.80905
2585.50000    0.80154
2586.00000    0.79324
2586.50000    0.78412
2587.00000    0.77407
2587.50000    0.76292
2588.00000    0.75044
2588.50000    0.73635
2589.00000    0.72033
2589.50000    0.70204
2590.00000    0.68116
2590.50000    0.65738
2591.00000    0.63046
2591.50000    0.60020
2592.00000    0.56649
2592.50000    0.52930
2593.00000    0.48872
2593.50000    0.44489
2594.00000    0.39809
2594.50000    0.34865
2595.00000    0.29698
2595.50000    0.24352
2596.00000    0.18878
2596.50000    0.13324
2597.00000    0.07742
2597.50000    0.02179
2598.00000   -0.03320
2598.50000   -0.08715
2599.00000   -0.13970
2599.50000   -0.19054
2600.00000   -0.23940
2600.50000   -0.28604
2601.00000   -0.33026
2601.50000   -0.37184
2602.00000   -0.41060
2602.50000   -0.44632
2603.00000   -0.47875
2603.50000   -0.50763
2604.00000   -0.53266
2604.50000   -0.55352
2605.00000   -0.56986
2605.50000   -0.58136
2606.00000   -0.58768
2606.50000   -0.58854
2607.00000   -0.58372
2607.50000   -0.57310
2608.00000   -0.55666
2608.50000   -0.53450
2609.00000   -0.50688
2609.50000   -0.47419
2610.00000   -0.43697
2610.50000   -0.39592
2611.00000   -0.35182
2611.50000   -0.30556
2612.00000   -0.25810
2612.50000   -0.21041
2613.00000   -0.16345
2613.50000   -0.11814
2614.00000   -0.07528
2614.50000   -0.03557
2615.00000    0.00044
2615.50000    0.03238
2616.00000    0.06008
2616.50000    0.08350
2617.00000    0.10283
2617.50000    0.11837
2618.00000    0.13058
2618.50000    0.14001
2619.00000    0.14727
2619.50000    0.15299
2620.00000    0.15780
2620.50000    0.16228
2621.00000    0.16693
2621.50000    0.17214
2622.00000    0.17820
2622.50000    0.18524
2623.00000    0.19330
2623.50000    0.20226
2624.00000    0.21192
2624.50000    0.22195
2625.00000    0.23200
2625.50000    0.24165
2626.00000    0.25045
2626.50000    0.25801
2627.00000    0.26392
2627.50000    0.26785
2628.00000    0.26955
2628.50000    0.26882
2629.00000    0.26555
2629.50000    0.25973
2630.00000    0.25139
2630.50000    0.24067
2631.00000    0.22773
2631.50000    0.21279
2632.00000    0.19611
2632.50000    0.17796
2633.00000    0.15860
2633.50000    0.13833
2634.00000    0.11741
2634.50000    0.09612
2635.00000    0.07472
2635.50000    0.05345
2636.00000    0.03259
2636.50000    0.01238
2637.00000   -0.00690
2637.50000   -0.02498
2638.00000   -0.04155
2638.50000   -0.05631
2639.00000   -0.06893
2639.50000   -0.07908
2640.00000   -0.08643
2640.50000   -0.09063
2641.00000   -0.09138
2641.50000   -0.08839
2642.00000   -0.08140
2642.50000   -0.07021
2643.00000   -0.05466
2643.50000   -0.03466
2644.00000   -0.01018
2644.50000    0.01877
2645.00000    0.05209
2645.50000    0.08966
2646.00000    0.13131
2646.50000    0.17682
2647.00000    0.22599
2647.50000    0.27859
2648.00000    0.33441
2648.50000    0.39326
2649.00000    0.45499
2649.50000    0.51947
2650.00000    0.58665
2650.50000    0.65650
2651.00000    0.72906
2651.50000    0.80441
2652.00000    0.88269
2652.50000    0.96406
2653.00000    1.04873
2653.50000    1.13692
2654.00000    1.22886
2654.50000    1.32480
2655.00000    1.42496
2655.50000    1.52956
2656.00000    1.63878
2656.50000    1.75279
2657.00000    1.87169
2657.50000    1.99557
2658.00000    2.12447
2658.50000    2.25838
2659.00000    2.39725
2659.50000    2.54102
2660.00000    2.68957
2660.50000    2.84276
2661.00000    3.00044
2661.50000    3.16244
2662.00000    3.32860
2662.50000    3.49874
2663.00000    3.67271
2663.50000    3.85034
2664.00000    4.03148
2664.50000    4.21599
2665.00000    4.40373
2665.50000    4.59457
2666.00000    4.78834
2666.50000    4.98488
2667.00000    5.18399
2667.50000    5.38544
2668.00000    5.58896
2668.50000    5.79421
2669.00000    6.00081
2669.50000    6.20833
2670.00000    6.41627
2670.50000    6.62409
2671.00000    6.83121
2671.50000    7.03702
2672.00000    7.24086
2672.50000    7.44209
2673.00000    7.64006
2673.50000    7.83413
2674.00000    8.02366
2674.50000    8.20806
2675.00000    8.38674
2675.50000    8.55914
2676.00000    8.72470
2676.50000    8.88289
2677.00000    9.03316
2677.50000    9.17494
2678.00000    9.30767
2678.50000    9.43075
2679.00000    9.54355
2679.50000    9.64541
2680.00000    9.73569
2680.50000    9.81372
2681.00000    9.87887
2681.50000    9.93054
2682.00000    9.96822
2682.50000    9.99148
2683.00000   10.00000
2683.50000    9.99363
2684.00000    9.97236
2684.50000    9.93636
2685.00000    9.88596
2685.50000    9.82164
2686.00000    9.74407
2686.50000    9.65401
2687.00000    9.55233
2687.50000    9.43997
2688.00000    9.31790
2688.50000    9.18706
2689.00000    9.04837
2689.50000    8.90269
2690.00000    8.75076
2690.50000    8.59323
2691.00000    8.43065
2691.50000    8.26343
2692.00000    8.09192
2692.50000    7.91638
2693.00000    7.73701
2693.50000    7.55400
2694.00000    7.36755
2694.50000    7.17788
2695.00000    6.98527
2695.50000    6.79008
2696.00000    6.59276
2696.50000    6.39385
2697.00000    6.19397
2697.50000    5.99384
2698.00000    5.79420
2698.50000    5.59585
2699.00000    5.39961
2699.50000    5.20625
2700.00000    5.01651
2700.50000    4.83106
2701.00000    4.65049
2701.50000    4.47524
2702.00000    4.30569
2702.50000    4.14207
2703.00000    3.98450
2703.50000    3.83298
2704.00000    3.68746
2704.50000    3.54777
2705.00000    3.41372
2705.50000    3.28505
2706.00000    3.16153
2706.50000    3.04291
2707.00000    2.92895
2707.50000    2.81947
2708.00000    2.71431
2708.50000    2.61338
2709.00000    2.51662
2709.50000    2.42403
2710.00000    2.33566
2710.50000    2.25159
2711.00000    2.17194
2711.50000    2.09685
2712.00000    2.02646
2712.50000    1.96092
2713.00000    1.90036
2713.50000    1.84489
2714.00000    1.79458
2714.50000    1.74944
2715.00000    1.70942
2715.50000    1.67439
2716.00000    1.64416
2716.50000    1.61843
2717.00000    1.59683
2717.50000    1.57889
2718.00000    1.56406
2718.50000    1.55173
2719.00000    1.54121
2719.50000    1.53179
2720.00000    1.52272
2720.50000    1.51326
2721.00000    1.50268
2721.50000    1.49032
2722.00000    1.47556
2722.50000    1.45788
2723.00000    1.43685
2723.50000    1.41217
2724.00000    1.38363
2724.50000    1.35116
2725.00000    1.31480
2725.50000    1.27470
2726.00000    1.23109
2726.50000    1.18430
2727.00000    1.13471
2727.50000    1.08277
2728.00000    1.02893
2728.50000    0.97368
2729.00000    0.91753
2729.50000    0.86097
2730.00000    0.80449
2730.50000    0.74857
2731.00000    0.69366
2731.50000    0.64022
2732.00000    0.58865
2732.50000    0.53936
2733.00000    0.49271
2733.50000    0.44902
2734.00000    0.40857
2734.50000    0.37158
2735.00000    0.33819
2735.50000    0.30847
2736.00000    0.28239
2736.50000    0.25983
2737.00000    0.24058
2737.50000    0.22432
2738.00000    0.21065
2738.50000    0.19910
2739.00000    0.18913
2739.50000    0.18019
2740.00000    0.17172
2740.50000    0.16316
2741.00000    0.15401
2741.50000    0.14385
2742.00000    0.13231
2742.50000    0.11916
2743.00000    0.10426
2743.50000    0.08755
2744.00000    0.06911
2744.50000    0.04907
2745.00000    0.02762
2745.50000    0.00502
2746.00000   -0.01849
2746.50000   -0.04263
2747.00000   -0.06718
2747.50000   -0.09195
2748.00000   -0.11676
2748.50000   -0.14153
2749.00000   -0.16619
2749.50000   -0.19071
2750.00000   -0.21507
2750.50000   -0.23929
2751.00000   -0.26334
2751.50000   -0.28717
2752.00000   -0.31068
2752.50000   -0.33372
2753.00000   -0.35609
2753.50000   -0.37752
2754.00000   -0.39768
2754.50000   -0.41623
2755.00000   -0.43277
2755.50000   -0.44693
2756.00000   -0.45833
2756.50000   -0.46665
2757.00000   -0.47160
2757.50000   -0.47297
2758.00000   -0.47063
2758.50000   -0.46452
2759.00000   -0.45464
2759.50000   -0.44109
2760.00000   -0.42401
2760.50000   -0.40362
2761.00000   -0.38014
2761.50000   -0.35384
2762.00000   -0.32501
2762.50000   -0.29394
2763.00000   -0.26095
2763.50000   -0.22633
2764.00000   -0.19042
2764.50000   -0.15354
2765.00000   -0.11606
2765.50000   -0.07833
2766.00000   -0.04074
2766.50000   -0.00370
2767.00000    0.03240
2767.50000    0.06714
2768.00000    0.10014
2768.50000    0.13105
2769.00000    0.15956
2769.50000    0.18544
2770.00000    0.20853
2770.50000    0.22877
2771.00000    0.24623
2771.50000    0.26103
2772.00000    0.27343
2772.50000    0.28374
2773.00000    0.29236
2773.50000    0.29970
2774.00000    0.30620
2774.50000    0.31225
2775.00000    0.31823
2775.50000    0.32439
2776.00000    0.33093
2776.50000    0.33790
2777.00000    0.34524
2777.50000    0.35276
2778.00000    0.36018
2778.50000    0.36709
2779.00000    0.37304
2779.50000    0.37751
2780.00000    0.37998
2780.50000    0.37995
2781.00000    0.37695
2781.50000    0.37059
2782.00000    0.36058
2782.50000    0.34672
2783.00000    0.32896
2783.50000    0.30732
2784.00000    0.28198
2784.50000    0.25319
2785.00000    0.22130
2785.50000    0.18673
2786.00000    0.14994
2786.50000    0.11146
2787.00000    0.07179
2787.50000    0.03148
2788.00000   -0.00897
2788.50000   -0.04905
2789.00000   -0.08828
2789.50000   -0.12621
2790.00000   -0.16242
2790.50000   -0.19651
2791.00000   -0.22812
2791.50000   -0.25692
2792.00000   -0.28260
2792.50000   -0.30489
2793.00000   -0.32354
2793.50000   -0.33837
2794.00000   -0.34919
2794.50000   -0.35591
2795.00000   -0.35844
2795.50000   -0.35679
2796.00000   -0.35100
2796.50000   -0.34117
2797.00000   -0.32749
2797.50000   -0.31017
2798.00000   -0.28952
2798.50000   -0.26588
2799.00000   -0.23965
2799.50000   -0.21128
2800.00000   -0.18124
2800.50000   -0.15004
2801.00000   -0.11820
2801.50000   -0.08626
2802.00000   -0.05475
2802.50000   -0.02419
2803.00000    0.00493
2803.50000    0.03213
2804.00000    0.05697
2804.50000    0.07909
2805.00000    0.09813
2805.50000    0.11383
2806.00000    0.12598
2806.50000    0.13444
2807.00000    0.13917
2807.50000    0.14016
2808.00000    0.13751
2808.50000    0.13140
2809.00000    0.12205
2809.50000    0.10979
2810.00000    0.09498
2810.50000    0.07804
2811.00000    0.05944
2811.50000    0.03967
2812.00000    0.01923
2812.50000   -0.00137
2813.00000   -0.02163
2813.50000   -0.04107
2814.00000   -0.05927
2814.50000   -0.07584
2815.00000   -0.09044
2815.50000   -0.10281
2816.00000   -0.11275
2816.50000   -0.12012
2817.00000   -0.12485
2817.50000   -0.12691
2818.00000   -0.12635
2818.50000   -0.12325
2819.00000   -0.11771
2819.50000   -0.10989
2820.00000   -0.09992
2820.50000   -0.08798
2821.00000   -0.07423
2821.50000   -0.05882
2822.00000   -0.04191
2822.50000   -0.02366
2823.00000   -0.00420
2823.50000    0.01631
2824.00000    0.03773
2824.50000    0.05988
2825.00000    0.08258
2825.50000    0.10563
2826.00000    0.12880
2826.50000    0.15184
2827.00000    0.17447
2827.50000    0.19639
2828.00000    0.21729
2828.50000    0.23684
2829.00000    0.25473
2829.50000    0.27064
2830.00000    0.28428
2830.50000    0.29540
2831.00000    0.30377
2831.50000    0.30922
2832.00000    0.31161
2832.50000    0.31088
2833.00000    0.30699
2833.50000    0.29999
2834.00000    0.28994
2834.50000    0.27698
2835.00000    0.26127
2835.50000    0.24301
2836.00000    0.22242
2836.50000    0.19978
2837.00000    0.17535
2837.50000    0.14944
2838.00000    0.12235
2838.50000    0.09439
2839.00000    0.06589
2839.50000    0.03716
2840.00000    0.00851
2840.50000   -0.01975
2841.00000   -0.04736
2841.50000   -0.07406
2842.00000   -0.09963
2842.50000   -0.12387
2843.00000   -0.14665
2843.50000   -0.16784
2844.00000   -0.18739
2844.50000   -0.20527
2845.00000   -0.22147
2845.50000   -0.23601
2846.00000   -0.24895
2846.50000   -0.26032
2847.00000   -0.27016
2847.50000   -0.27850
2848.00000   -0.28533
2848.50000   -0.29062
2849.00000   -0.29433
2849.50000   -0.29636
2850.00000   -0.29661
2850.50000   -0.29497
2851.00000   -0.29134
2851.50000   -0.28562
2852.00000   -0.27777
2852.50000   -0.26778
2853.00000   -0.25572
2853.50000   -0.24173
2854.00000   -0.22603
2854.50000   -0.20891
2855.00000   -0.19074
2855.50000   -0.17195
2856.00000   -0.15303
2856.50000   -0.13448
2857.00000   -0.11678
2857.50000   -0.10041
2858.00000   -0.08578
2858.50000   -0.07323
2859.00000   -0.06300
2859.50000   -0.05521
2860.00000   -0.04986
2860.50000   -0.04683
2861.00000   -0.04585
2861.50000   -0.04657
2862.00000   -0.04854
2862.50000   -0.05121
2863.00000   -0.05403
2863.50000   -0.05638
2864.00000   -0.05771
2864.50000   -0.05747
2865.00000   -0.05521
2865.50000   -0.05054
2866.00000   -0.04321
2866.50000   -0.03309
2867.00000   -0.02018
2867.50000   -0.00462
2868.00000    0.01335
2868.50000    0.03333
2869.00000    0.05484
2869.50000    0.07734
2870.00000    0.10021
2870.50000    0.12278
2871.00000    0.14443
2871.50000    0.16451
2872.00000    0.18246
2872.50000    0.19778
2873.00000    0.21006
2873.50000    0.21901
2874.00000    0.22448
2874.50000    0.22643
2875.00000    0.22497
2875.50000    0.22032
2876.00000    0.21284
2876.50000    0.20297
2877.00000    0.19125
2877.50000    0.17825
2878.00000    0.16461
2878.50000    0.15093
2879.00000    0.13781
2879.50000    0.12581
2880.00000    0.11539
2880.50000    0.10695
2881.00000    0.10076
2881.50000    0.09701
2882.00000    0.09575
2882.50000    0.09692
2883.00000    0.10036
2883.50000    0.10581
2884.00000    0.11293
2884.50000    0.12131
2885.00000    0.13049
2885.50000    0.13997
2886.00000    0.14925
2886.50000    0.15779
2887.00000    0.16510
2887.50000    0.17069
2888.00000    0.17409
2888.50000    0.17491
2889.00000    0.17279
2889.50000    0.16741
2890.00000    0.15855
2890.50000    0.14606
2891.00000    0.12983
2891.50000    0.10987
2892.00000    0.08625
2892.50000    0.05914
2893.00000    0.02877
2893.50000   -0.00457
2894.00000   -0.04051
2894.50000   -0.07866
2895.00000   -0.11858
2895.50000   -0.15986
2896.00000   -0.20210
2896.50000   -0.24494
2897.00000   -0.28808
2897.50000   -0.33130
2898.00000   -0.37447
2898.50000   -0.41752
2899.00000   -0.46046
2899.50000   -0.50336
