1200.50000   -0.24261
1201.00000   -0.22507
1201.50000   -0.20751
1202.00000   -0.18996
1202.50000   -0.17244
1203.00000   -0.15500
1203.50000   -0.13770
1204.00000   -0.12062
1204.50000   -0.10385
1205.00000   -0.08749
1205.50000   -0.07165
1206.00000   -0.05643
1206.50000   -0.04193
1207.00000   -0.02822
1207.50000   -0.01539
1208.00000   -0.00346
1208.50000    0.00753
1209.00000    0.01759
1209.50000    0.02676
1210.00000    0.03507
1210.50000    0.04262
1211.00000    0.04948
1211.50000    0.05578
1212.00000    0.06162
1212.50000    0.06713
1213.00000    0.07242
1213.50000    0.07760
1214.00000    0.08276
1214.50000    0.08797
1215.00000    0.09330
1215.50000    0.09876
1216.00000    0.10437
1216.50000    0.11010
1217.00000    0.11590
1217.50000    0.12170
1218.00000    0.12740
1218.50000    0.13290
1219.00000    0.13807
1219.50000    0.14279
1220.00000    0.14691
1220.50000    0.15031
1221.00000    0.15285
1221.50000    0.15442
1222.00000    0.15492
1222.50000    0.15425
1223.00000    0.15235
1223.50000    0.14917
1224.00000    0.14470
1224.50000    0.13892
1225.00000    0.13187
1225.50000    0.12360
1226.00000    0.11419
1226.50000    0.10372
1227.00000    0.09233
1227.50000    0.08017
1228.00000    0.06738
1228.50000    0.05417
1229.00000    0.04072
1229.50000    0.02725
1230.00000    0.01398
1230.50000    0.00113
1231.00000   -0.01108
1231.50000   -0.02243
1232.00000   -0.03271
1232.50000   -0.04172
1233.00000   -0.04930
1233.50000   -0.05529
1234.00000   -0.05958
1234.50000   -0.06210
1235.00000   -0.06281
1235.50000   -0.06170
1236.00000   -0.05884
1236.50000   -0.05431
1237.00000   -0.04826
1237.50000   -0.04086
1238.00000   -0.03233
1238.50000   -0.02291
1239.00000   -0.01287
1239.50000   -0.00249
1240.00000    0.00794
1240.50000    0.01815
1241.00000    0.02784
1241.50000    0.03677
1242.00000    0.04471
1242.50000    0.05145
1243.00000    0.05685
1243.50000    0.06078
1244.00000    0.06317
1244.50000    0.06399
1245.00000    0.06326
1245.50000    0.06102
1246.00000    0.05737
1246.50000    0.05240
1247.00000    0.04628
1247.50000    0.03913
1248.00000    0.03114
1248.50000    0.02247
1249.00000    0.01328
1249.50000    0.00374
1250.00000   -0.00600
1250.50000   -0.01580
1251.00000   -0.02554
1251.50000   -0.03508
1252.00000   -0.04435
1252.50000   -0.05324
1253.00000   -0.06168
1253.50000   -0.06960
1254.00000   -0.07694
1254.50000   -0.08364
1255.00000   -0.08964
1255.50000   -0.09491
1256.00000   -0.09940
1256.50000   -0.10307
1257.00000   -0.10589
1257.50000   -0.10786
1258.00000   -0.10896
1258.50000   -0.10922
1259.00000   -0.10866
1259.50000   -0.10733
1260.00000   -0.10531
1260.50000   -0.10270
1261.00000   -0.09962
1261.50000   -0.09621
1262.00000   -0.09263
1262.50000   -0.08906
1263.00000   -0.08566
1263.50000   -0.08262
1264.00000   -0.08011
1264.50000   -0.07829
1265.00000   -0.07729
1265.50000   -0.07722
1266.00000   -0.07815
1266.50000   -0.08012
1267.00000   -0.08313
1267.50000   -0.08711
1268.00000   -0.09197
1268.50000   -0.09757
1269.00000   -0.10374
1269.50000   -0.11024
1270.00000   -0.11686
1270.50000   -0.12332
1271.00000   -0.12935
1271.50000   -0.13469
1272.00000   -0.13909
1272.50000   -0.14229
1273.00000   -0.14409
1273.50000   -0.14430
1274.00000   -0.14279
1274.50000   -0.13945
1275.00000   -0.13424
1275.50000   -0.12715
1276.00000   -0.11821
1276.50000   -0.10752
1277.00000   -0.09519
1277.50000   -0.08138
1278.00000   -0.06627
1278.50000   -0.05006
1279.00000   -0.03297
1279.50000   -0.01523
1280.00000    0.00294
1280.50000    0.02132
1281.00000    0.03968
1281.50000    0.05784
1282.00000    0.07560
1282.50000    0.09278
1283.00000    0.10922
1283.50000    0.12477
1284.00000    0.13931
1284.50000    0.15271
1285.00000    0.16486
1285.50000    0.17567
1286.00000    0.18505
1286.50000    0.19291
1287.00000    0.19919
1287.50000    0.20382
1288.00000    0.20675
1288.50000    0.20795
1289.00000    0.20740
1289.50000    0.20509
1290.00000    0.20104
1290.50000    0.19530
1291.00000    0.18793
1291.50000    0.17902
1292.00000    0.16870
1292.50000    0.15712
1293.00000    0.14443
1293.50000    0.13083
1294.00000    0.11653
1294.50000    0.10174
1295.00000    0.08669
1295.50000    0.07159
1296.00000    0.05666
1296.50000    0.04208
1297.00000    0.02802
1297.50000    0.01464
1298.00000    0.00204
1298.50000   -0.00970
1299.00000   -0.02054
1299.50000   -0.03047
1300.00000   -0.03952
1300.50000   -0.04774
1301.00000   -0.05522
1301.50000   -0.06203
1302.00000   -0.06829
1302.50000   -0.07410
1303.00000   -0.07956
1303.50000   -0.08475
1304.00000   -0.08972
1304.50000   -0.09451
1305.00000   -0.09911
1305.50000   -0.10349
1306.00000   -0.10756
1306.50000   -0.11122
1307.00000   -0.11433
1307.50000   -0.11671
1308.00000   -0.11818
1308.50000   -0.11851
1309.00000   -0.11750
1309.50000   -0.11494
1310.00000   -0.11060
1310.50000   -0.10431
1311.00000   -0.09591
1311.50000   -0.08525
1312.00000   -0.07225
1312.50000   -0.05685
1313.00000   -0.03904
1313.50000   -0.01885
1314.00000    0.00364
1314.50000    0.02833
1315.00000    0.05507
1315.50000    0.08368
1316.00000    0.11397
1316.50000    0.14572
1317.00000    0.17871
1317.50000    0.21272
1318.00000    0.24751
1318.50000    0.28287
1319.00000    0.31862
1319.50000    0.35459
1320.00000    0.39062
1320.50000    0.42661
1321.00000    0.46250
1321.50000    0.49824
1322.00000    0.53384
1322.50000    0.56935
1323.00000    0.60487
1323.50000    0.64050
1324.00000    0.67643
1324.50000    0.71284
1325.00000    0.74995
1325.50000    0.78801
1326.00000    0.82728
1326.50000    0.86804
1327.00000    0.91055
1327.50000    0.95510
1328.00000    1.00192
1328.50000    1.05125
1329.00000    1.10329
1329.50000    1.15820
1330.00000    1.21610
1330.50000    1.27703
1331.00000    1.34100
1331.50000    1.40795
1332.00000    1.47773
1332.50000    1.55016
1333.00000    1.62495
1333.50000    1.70179
1334.00000    1.78028
1334.50000    1.85996
1335.00000    1.94032
1335.50000    2.02083
1336.00000    2.10090
1336.50000    2.17991
1337.00000    2.25724
1337.50000    2.33224
1338.00000    2.40427
1338.50000    2.47272
1339.00000    2.53696
1339.50000    2.59644
1340.00000    2.65059
1340.50000    2.69895
1341.00000    2.74105
1341.50000    2.77652
1342.00000    2.80503
1342.50000    2.82634
1343.00000    2.84026
1343.50000    2.84669
1344.00000    2.84559
1344.50000    2.83703
1345.00000    2.82112
1345.50000    2.79807
1346.00000    2.76816
1346.50000    2.73175
1347.00000    2.68925
1347.50000    2.64114
1348.00000    2.58797
1348.50000    2.53030
1349.00000    2.46877
1349.50000    2.40400
1350.00000    2.33665
1350.50000    2.26738
1351.00000    2.19683
1351.50000    2.12563
1352.00000    2.05437
1352.50000    1.98359
1353.00000    1.91381
1353.50000    1.84546
1354.00000    1.77892
1354.50000    1.71451
1355.00000    1.65246
1355.50000    1.59296
1356.00000    1.53611
1356.50000    1.48194
1357.00000    1.43043
1357.50000    1.38152
1358.00000    1.33506
1358.50000    1.29090
1359.00000    1.24883
1359.50000    1.20865
1360.00000    1.17010
1360.50000    1.13295
1361.00000    1.09695
1361.50000    1.06185
1362.00000    1.02744
1362.50000    0.99349
1363.00000    0.95980
1363.50000    0.92622
1364.00000    0.89260
1364.50000    0.85881
1365.00000    0.82478
1365.50000    0.79045
1366.00000    0.75579
1366.50000    0.72080
1367.00000    0.68551
1367.50000    0.64998
1368.00000    0.61429
1368.50000    0.57854
1369.00000    0.54286
1369.50000    0.50739
1370.00000    0.47227
1370.50000    0.43768
1371.00000    0.40376
1371.50000    0.37070
1372.00000    0.33865
1372.50000    0.30777
1373.00000    0.27820
1373.50000    0.25006
1374.00000    0.22345
1374.50000    0.19846
1375.00000    0.17512
1375.50000    0.15347
1376.00000    0.13350
1376.50000    0.11516
1377.00000    0.09839
1377.50000    0.08310
1378.00000    0.06918
1378.50000    0.05650
1379.00000    0.04492
1379.50000    0.03429
1380.00000    0.02445
1380.50000    0.01527
1381.00000    0.00660
1381.50000   -0.00167
1382.00000   -0.00965
1382.50000   -0.01740
1383.00000   -0.02499
1383.50000   -0.03242
1384.00000   -0.03969
1384.50000   -0.04676
1385.00000   -0.05357
1385.50000   -0.06000
1386.00000   -0.06595
1386.50000   -0.07129
1387.00000   -0.07585
1387.50000   -0.07948
1388.00000   -0.08203
1388.50000   -0.08332
1389.00000   -0.08322
1389.50000   -0.08158
1390.00000   -0.07829
1390.50000   -0.07325
1391.00000   -0.06639
1391.50000   -0.05767
1392.00000   -0.04709
1392.50000   -0.03468
1393.00000   -0.02050
1393.50000   -0.00466
1394.00000    0.01272
1394.50000    0.03147
1395.00000    0.05137
1395.50000    0.07221
1396.00000    0.09373
1396.50000    0.11565
1397.00000    0.13768
1397.50000    0.15951
1398.00000    0.18083
1398.50000    0.20133
1399.00000    0.22069
1399.50000    0.23861
1400.00000    0.25481
1400.50000    0.26902
1401.00000    0.28100
1401.50000    0.29054
1402.00000    0.29748
1402.50000    0.30168
1403.00000    0.30307
1403.50000    0.30160
1404.00000    0.29730
1404.50000    0.29021
1405.00000    0.28046
1405.50000    0.26818
1406.00000    0.25358
1406.50000    0.23689
1407.00000    0.21835
1407.50000    0.19827
1408.00000    0.17693
1408.50000    0.15466
1409.00000    0.13176
1409.50000    0.10854
1410.00000    0.08531
1410.50000    0.06234
1411.00000    0.03988
1411.50000    0.01818
1412.00000   -0.00258
1412.50000   -0.02224
1413.00000   -0.04065
1413.50000   -0.05772
1414.00000   -0.07338
1414.50000   -0.08759
1415.00000   -0.10034
1415.50000   -0.11163
1416.00000   -0.12148
1416.50000   -0.12992
1417.00000   -0.13700
1417.50000   -0.14275
1418.00000   -0.14722
1418.50000   -0.15045
1419.00000   -0.15249
1419.50000   -0.15337
1420.00000   -0.15312
1420.50000   -0.15177
1421.00000   -0.14934
1421.50000   -0.14587
1422.00000   -0.14137
1422.50000   -0.13588
1423.00000   -0.12942
1423.50000   -0.12205
1424.00000   -0.11381
1424.50000   -0.10474
1425.00000   -0.09492
1425.50000   -0.08442
1426.00000   -0.07331
1426.50000   -0.06168
1427.00000   -0.04963
1427.50000   -0.03725
1428.00000   -0.02464
1428.50000   -0.01193
1429.00000    0.00079
1429.50000    0.01338
1430.00000    0.02573
1430.50000    0.03770
1431.00000    0.04917
1431.50000    0.06000
1432.00000    0.07004
1432.50000    0.07914
1433.00000    0.08716
1433.50000    0.09394
1434.00000    0.09935
1434.50000    0.10325
1435.00000    0.10550
1435.50000    0.10601
1436.00000    0.10468
1436.50000    0.10146
1437.00000    0.09634
1437.50000    0.08932
1438.00000    0.08048
1438.50000    0.06991
1439.00000    0.05777
1439.50000    0.04427
1440.00000    0.02965
1440.50000    0.01419
1441.00000   -0.00177
1441.50000   -0.01791
1442.00000   -0.03384
1442.50000   -0.04921
1443.00000   -0.06366
1443.50000   -0.07684
1444.00000   -0.08844
1444.50000   -0.09817
1445.00000   -0.10581
1445.50000   -0.11117
1446.00000   -0.11411
1446.50000   -0.11458
1447.00000   -0.11253
1447.50000   -0.10802
1448.00000   -0.10111
1448.50000   -0.09193
1449.00000   -0.08064
1449.50000   -0.06740
1450.00000   -0.05243
1450.50000   -0.03593
1451.00000   -0.01810
1451.50000    0.00084
1452.00000    0.02070
1452.50000    0.04129
1453.00000    0.06244
1453.50000    0.08399
1454.00000    0.10578
1454.50000    0.12768
1455.00000    0.14953
1455.50000    0.17121
1456.00000    0.19258
1456.50000    0.21350
1457.00000    0.23382
1457.50000    0.25341
1458.00000    0.27212
1458.50000    0.28979
1459.00000    0.30627
1459.50000    0.32144
1460.00000    0.33515
1460.50000    0.34730
1461.00000    0.35780
1461.50000    0.36657
1462.00000    0.37357
1462.50000    0.37880
1463.00000    0.38225
1463.50000    0.38398
1464.00000    0.38405
1464.50000    0.38254
1465.00000    0.37956
1465.50000    0.37521
1466.00000    0.36961
1466.50000    0.36290
1467.00000    0.35518
1467.50000    0.34657
1468.00000    0.33717
1468.50000    0.32708
1469.00000    0.31638
1469.50000    0.30515
1470.00000    0.29345
1470.50000    0.28136
1471.00000    0.26893
1471.50000    0.25623
1472.00000    0.24331
1472.50000    0.23025
1473.00000    0.21712
1473.50000    0.20399
1474.00000    0.19094
1474.50000    0.17803
1475.00000    0.16534
1475.50000    0.15292
1476.00000    0.14081
1476.50000    0.12903
1477.00000    0.11760
1477.50000    0.10648
1478.00000    0.09565
1478.50000    0.08504
1479.00000    0.07457
1479.50000    0.06416
1480.00000    0.05370
1480.50000    0.04311
1481.00000    0.03228
1481.50000    0.02116
1482.00000    0.00970
1482.50000   -0.00211
1483.00000   -0.01424
1483.50000   -0.02664
1484.00000   -0.03920
1484.50000   -0.05179
1485.00000   -0.06422
1485.50000   -0.07632
1486.00000   -0.08788
1486.50000   -0.09869
1487.00000   -0.10855
1487.50000   -0.11727
1488.00000   -0.12471
1488.50000   -0.13077
1489.00000   -0.13537
1489.50000   -0.13851
1490.00000   -0.14023
1490.50000   -0.14064
1491.00000   -0.13988
1491.50000   -0.13814
1492.00000   -0.13565
1492.50000   -0.13265
1493.00000   -0.12939
1493.50000   -0.12611
1494.00000   -0.12302
1494.50000   -0.12033
1495.00000   -0.11817
1495.50000   -0.11666
1496.00000   -0.11582
1496.50000   -0.11567
1497.00000   -0.11614
1497.50000   -0.11712
1498.00000   -0.11847
1498.50000   -0.12001
1499.00000   -0.12153
1499.50000   -0.12284
1500.00000   -0.12371
1500.50000   -0.12396
1501.00000   -0.12341
1501.50000   -0.12192
1502.00000   -0.11937
1502.50000   -0.11570
1503.00000   -0.11089
1503.50000   -0.10495
1504.00000   -0.09792
1504.50000   -0.08988
1505.00000   -0.08095
1505.50000   -0.07124
1506.00000   -0.06089
1506.50000   -0.05003
1507.00000   -0.03881
1507.50000   -0.02735
1508.00000   -0.01578
1508.50000   -0.00419
1509.00000    0.00733
1509.50000    0.01870
1510.00000    0.02986
1510.50000    0.04076
1511.00000    0.05138
1511.50000    0.06167
1512.00000    0.07161
1512.50000    0.08119
1513.00000    0.09036
1513.50000    0.09910
1514.00000    0.10736
1514.50000    0.11510
1515.00000    0.12227
1515.50000    0.12881
1516.00000    0.13467
1516.50000    0.13978
1517.00000    0.14408
1517.50000    0.14753
1518.00000    0.15009
1518.50000    0.15170
1519.00000    0.15235
1519.50000    0.15204
1520.00000    0.15077
1520.50000    0.14857
1521.00000    0.14546
1521.50000    0.14151
1522.00000    0.13679
1522.50000    0.13137
1523.00000    0.12534
1523.50000    0.11881
1524.00000    0.11185
1524.50000    0.10458
1525.00000    0.09708
1525.50000    0.08944
1526.00000    0.08172
1526.50000    0.07398
1527.00000    0.06626
1527.50000    0.05859
1528.00000    0.05097
1528.50000    0.04340
1529.00000    0.03583
1529.50000    0.02822
1530.00000    0.02053
1530.50000    0.01268
1531.00000    0.00460
1531.50000   -0.00378
1532.00000   -0.01250
1532.50000   -0.02163
1533.00000   -0.03120
1533.50000   -0.04121
1534.00000   -0.05164
1534.50000   -0.06244
1535.00000   -0.07354
1535.50000   -0.08479
1536.00000   -0.09606
1536.50000   -0.10716
1537.00000   -0.11786
1537.50000   -0.12793
1538.00000   -0.13712
1538.50000   -0.14517
1539.00000   -0.15181
1539.50000   -0.15680
1540.00000   -0.15992
1540.50000   -0.16096
1541.00000   -0.15979
1541.50000   -0.15630
1542.00000   -0.15047
1542.50000   -0.14230
1543.00000   -0.13191
1543.50000   -0.11946
1544.00000   -0.10519
1544.50000   -0.08938
1545.00000   -0.07240
1545.50000   -0.05465
1546.00000   -0.03655
1546.50000   -0.01854
1547.00000   -0.00108
1547.50000    0.01541
1548.00000    0.03053
1548.50000    0.04393
1549.00000    0.05532
1549.50000    0.06448
1550.00000    0.07127
1550.50000    0.07564
1551.00000    0.07762
1551.50000    0.07734
1552.00000    0.07500
1552.50000    0.07087
1553.00000    0.06529
1553.50000    0.05866
1554.00000    0.05139
1554.50000    0.04392
1555.00000    0.03670
1555.50000    0.03016
1556.00000    0.02468
1556.50000    0.02064
1557.00000    0.01835
1557.50000    0.01806
1558.00000    0.01999
1558.50000    0.02428
1559.00000    0.03104
1559.50000    0.04034
1560.00000    0.05219
1560.50000    0.06662
1561.00000    0.08362
1561.50000    0.10317
1562.00000    0.12527
1562.50000    0.14995
1563.00000    0.17723
1563.50000    0.20719
1564.00000    0.23991
1564.50000    0.27552
1565.00000    0.31416
1565.50000    0.35599
1566.00000    0.40118
1566.50000    0.44991
1567.00000    0.50236
1567.50000    0.55867
1568.00000    0.61900
1568.50000    0.68344
1569.00000    0.75208
1569.50000    0.82495
1570.00000    0.90208
1570.50000    0.98343
1571.00000    1.06894
1571.50000    1.15853
1572.00000    1.25209
1572.50000    1.34947
1573.00000    1.45051
1573.50000    1.55503
1574.00000    1.66283
1574.50000    1.77368
1575.00000    1.88734
1575.50000    2.00354
1576.00000    2.12195
1576.50000    2.24224
1577.00000    2.36401
1577.50000    2.48681
1578.00000    2.61014
1578.50000    2.73345
1579.00000    2.85610
1579.50000    2.97744
1580.00000    3.09673
1580.50000    3.21321
1581.00000    3.32611
1581.50000    3.43462
1582.00000    3.53794
1582.50000    3.63530
1583.00000    3.72596
1583.50000    3.80924
1584.00000    3.88454
1584.50000    3.95134
1585.00000    4.00922
1585.50000    4.05788
1586.00000    4.09711
1586.50000    4.12684
1587.00000    4.14710
1587.50000    4.15802
1588.00000    4.15985
1588.50000    4.15290
1589.00000    4.13757
1589.50000    4.11432
1590.00000    4.08365
1590.50000    4.04609
1591.00000    4.00218
1591.50000    3.95249
1592.00000    3.89756
1592.50000    3.83793
1593.00000    3.77415
1593.50000    3.70672
1594.00000    3.63614
1594.50000    3.56291
1595.00000    3.48749
1595.50000    3.41035
1596.00000    3.33194
1596.50000    3.25270
1597.00000    3.17305
1597.50000    3.09342
1598.00000    3.01421
1598.50000    2.93580
1599.00000    2.85856
1599.50000    2.78280
1600.00000    2.70882
1600.50000    2.63686
1601.00000    2.56711
1601.50000    2.49970
1602.00000    2.43471
1602.50000    2.37215
1603.00000    2.31198
1603.50000    2.25409
1604.00000    2.19832
1604.50000    2.14449
1605.00000    2.09236
1605.50000    2.04167
1606.00000    1.99218
1606.50000    1.94360
1607.00000    1.89571
1607.50000    1.84827
1608.00000    1.80110
1608.50000    1.75407
1609.00000    1.70709
1609.50000    1.66013
1610.00000    1.61322
1610.50000    1.56646
1611.00000    1.51999
1611.50000    1.47400
1612.00000    1.42876
1612.50000    1.38452
1613.00000    1.34161
1613.50000    1.30033
1614.00000    1.26100
1614.50000    1.22394
1615.00000    1.18942
1615.50000    1.15770
1616.00000    1.12900
1616.50000    1.10349
1617.00000    1.08128
1617.50000    1.06244
1618.00000    1.04696
1618.50000    1.03480
1619.00000    1.02582
1619.50000    1.01988
1620.00000    1.01674
1620.50000    1.01615
1621.00000    1.01780
1621.50000    1.02137
1622.00000    1.02649
1622.50000    1.03279
1623.00000    1.03989
1623.50000    1.04740
1624.00000    1.05494
1624.50000    1.06215
1625.00000    1.06866
1625.50000    1.07414
1626.00000    1.07828
1626.50000    1.08080
1627.00000    1.08143
1627.50000    1.07995
1628.00000    1.07617
1628.50000    1.06992
1629.00000    1.06107
1629.50000    1.04952
1630.00000    1.03520
1630.50000    1.01807
1631.00000    0.99812
1631.50000    0.97537
1632.00000    0.94988
1632.50000    0.92171
1633.00000    0.89097
1633.50000    0.85779
1634.00000    0.82231
1634.50000    0.78473
1635.00000    0.74522
1635.50000    0.70402
1636.00000    0.66136
1636.50000    0.61749
1637.00000    0.57268
1637.50000    0.52721
1638.00000    0.48137
1638.50000    0.43544
1639.00000    0.38972
1639.50000    0.34451
1640.00000    0.30009
1640.50000    0.25674
1641.00000    0.21473
1641.50000    0.17431
1642.00000    0.13572
1642.50000    0.09917
1643.00000    0.06486
1643.50000    0.03294
1644.00000    0.00355
1644.50000   -0.02319
1645.00000   -0.04721
1645.50000   -0.06845
1646.00000   -0.08691
1646.50000   -0.10258
1647.00000   -0.11550
1647.50000   -0.12575
1648.00000   -0.13339
1648.50000   -0.13856
1649.00000   -0.14137
1649.50000   -0.14197
1650.00000   -0.14053
1650.50000   -0.13722
1651.00000   -0.13222
1651.50000   -0.12573
1652.00000   -0.11794
1652.50000   -0.10904
1653.00000   -0.09925
1653.50000   -0.08874
1654.00000   -0.07772
1654.50000   -0.06638
1655.00000   -0.05489
1655.50000   -0.04342
1656.00000   -0.03214
1656.50000   -0.02120
1657.00000   -0.01072
1657.50000   -0.00082
1658.00000    0.00841
1658.50000    0.01688
1659.00000    0.02455
1659.50000    0.03138
1660.00000    0.03736
1660.50000    0.04251
1661.00000    0.04687
1661.50000    0.05049
1662.00000    0.05345
1662.50000    0.05584
1663.00000    0.05776
1663.50000    0.05932
1664.00000    0.06064
1664.50000    0.06181
1665.00000    0.06296
1665.50000    0.06416
1666.00000    0.06550
1666.50000    0.06704
1667.00000    0.06881
1667.50000    0.07085
1668.00000    0.07314
1668.50000    0.07566
1669.00000    0.07836
1669.50000    0.08119
1670.00000    0.08407
1670.50000    0.08692
1671.00000    0.08964
1671.50000    0.09215
1672.00000    0.09436
1672.50000    0.09619
1673.00000    0.09758
1673.50000    0.09847
1674.00000    0.09882
1674.50000    0.09862
1675.00000    0.09785
1675.50000    0.09653
1676.00000    0.09466
1676.50000    0.09228
1677.00000    0.08942
1677.50000    0.08611
1678.00000    0.08238
1678.50000    0.07826
1679.00000    0.07378
1679.50000    0.06894
1680.00000    0.06377
1680.50000    0.05824
1681.00000    0.05237
1681.50000    0.04614
1682.00000    0.03954
1682.50000    0.03256
1683.00000    0.02519
1683.50000    0.01744
1684.00000    0.00933
1684.50000    0.00089
1685.00000   -0.00784
1685.50000   -0.01680
1686.00000   -0.02590
1686.50000   -0.03504
1687.00000   -0.04413
1687.50000   -0.05304
1688.00000   -0.06165
1688.50000   -0.06982
1689.00000   -0.07745
1689.50000   -0.08441
1690.00000   -0.09060
1690.50000   -0.09593
1691.00000   -0.10033
1691.50000   -0.10375
1692.00000   -0.10615
1692.50000   -0.10753
1693.00000   -0.10789
1693.50000   -0.10727
1694.00000   -0.10572
1694.50000   -0.10329
1695.00000   -0.10006
1695.50000   -0.09612
1696.00000   -0.09155
1696.50000   -0.08646
1697.00000   -0.08094
1697.50000   -0.07510
1698.00000   -0.06904
1698.50000   -0.06287
1699.00000   -0.05670
1699.50000   -0.05064
1700.00000   -0.04479
1700.50000   -0.03926
1701.00000   -0.03418
1701.50000   -0.02965
1702.00000   -0.02579
1702.50000   -0.02270
1703.00000   -0.02048
1703.50000   -0.01922
1704.00000   -0.01900
1704.50000   -0.01986
1705.00000   -0.02186
1705.50000   -0.02499
1706.00000   -0.02924
1706.50000   -0.03456
1707.00000   -0.04086
1707.50000   -0.04802
1708.00000   -0.05592
1708.50000   -0.06436
1709.00000   -0.07317
1709.50000   -0.08212
1710.00000   -0.09098
1710.50000   -0.09953
1711.00000   -0.10753
1711.50000   -0.11476
1712.00000   -0.12101
1712.50000   -0.12608
1713.00000   -0.12981
1713.50000   -0.13205
1714.00000   -0.13270
1714.50000   -0.13167
1715.00000   -0.12892
1715.50000   -0.12441
1716.00000   -0.11815
1716.50000   -0.11017
1717.00000   -0.10053
1717.50000   -0.08930
1718.00000   -0.07658
1718.50000   -0.06248
1719.00000   -0.04713
1719.50000   -0.03069
1720.00000   -0.01331
1720.50000    0.00480
1721.00000    0.02346
1721.50000    0.04244
1722.00000    0.06150
1722.50000    0.08037
1723.00000    0.09879
1723.50000    0.11648
1724.00000    0.13313
1724.50000    0.14847
1725.00000    0.16219
1725.50000    0.17404
1726.00000    0.18377
1726.50000    0.19117
1727.00000    0.19606
1727.50000    0.19835
1728.00000    0.19796
1728.50000    0.19491
1729.00000    0.18928
1729.50000    0.18121
1730.00000    0.17091
1730.50000    0.15865
1731.00000    0.14476
1731.50000    0.12962
1732.00000    0.11362
1732.50000    0.09718
1733.00000    0.08072
1733.50000    0.06466
1734.00000    0.04939
1734.50000    0.03525
1735.00000    0.02253
1735.50000    0.01146
1736.00000    0.00220
1736.50000   -0.00517
1737.00000   -0.01065
1737.50000   -0.01430
1738.00000   -0.01628
1738.50000   -0.01679
1739.00000   -0.01609
1739.50000   -0.01449
1740.00000   -0.01231
1740.50000   -0.00990
1741.00000   -0.00758
1741.50000   -0.00568
1742.00000   -0.00448
1742.50000   -0.00421
1743.00000   -0.00505
1743.50000   -0.00711
1744.00000   -0.01045
1744.50000   -0.01504
1745.00000   -0.02078
1745.50000   -0.02752
1746.00000   -0.03502
1746.50000   -0.04301
1747.00000   -0.05116
1747.50000   -0.05912
1748.00000   -0.06653
1748.50000   -0.07300
1749.00000   -0.07817
1749.50000   -0.08169
1750.00000   -0.08325
1750.50000   -0.08259
1751.00000   -0.07949
1751.50000   -0.07379
1752.00000   -0.06542
1752.50000   -0.05435
1753.00000   -0.04062
1753.50000   -0.02435
1754.00000   -0.00569
1754.50000    0.01514
1755.00000    0.03789
1755.50000    0.06227
1756.00000    0.08795
1756.50000    0.11462
1757.00000    0.14193
1757.50000    0.16956
1758.00000    0.19716
1758.50000    0.22443
1759.00000    0.25106
1759.50000    0.27678
1760.00000    0.30133
1760.50000    0.32447
1761.00000    0.34602
1761.50000    0.36577
1762.00000    0.38357
1762.50000    0.39929
1763.00000    0.41281
1763.50000    0.42405
1764.00000    0.43294
1764.50000    0.43943
1765.00000    0.44350
1765.50000    0.44516
1766.00000    0.44442
1766.50000    0.44135
1767.00000    0.43601
1767.50000    0.42850
1768.00000    0.41895
1768.50000    0.40750
1769.00000    0.39430
1769.50000    0.37951
1770.00000    0.36332
1770.50000    0.34590
1771.00000    0.32742
1771.50000    0.30805
1772.00000    0.28795
1772.50000    0.26726
1773.00000    0.24609
1773.50000    0.22456
1774.00000    0.20274
1774.50000    0.18071
1775.00000    0.15852
1775.50000    0.13620
1776.00000    0.11381
1776.50000    0.09137
1777.00000    0.06894
1777.50000    0.04656
1778.00000    0.02433
1778.50000    0.00234
1779.00000   -0.01929
1779.50000   -0.04040
1780.00000   -0.06081
1780.50000   -0.08031
1781.00000   -0.09868
1781.50000   -0.11568
1782.00000   -0.13105
1782.50000   -0.14455
1783.00000   -0.15593
1783.50000   -0.16498
1784.00000   -0.17149
1784.50000   -0.17532
1785.00000   -0.17633
1785.50000   -0.17446
1786.00000   -0.16970
1786.50000   -0.16207
1787.00000   -0.15168
1787.50000   -0.13868
1788.00000   -0.12326
1788.50000   -0.10566
1789.00000   -0.08619
1789.50000   -0.06517
1790.00000   -0.04296
1790.50000   -0.01992
1791.00000    0.00355
1791.50000    0.02705
1792.00000    0.05020
1792.50000    0.07262
1793.00000    0.09396
1793.50000    0.11387
1794.00000    0.13206
1794.50000    0.14827
1795.00000    0.16227
1795.50000    0.17387
1796.00000    0.18296
1796.50000    0.18942
1797.00000    0.19323
1797.50000    0.19438
1798.00000    0.19292
1798.50000    0.18891
1799.00000    0.18248
1799.50000    0.17377
1800.00000    0.16294
1800.50000    0.15018
1801.00000    0.13570
1801.50000    0.11971
1802.00000    0.10243
1802.50000    0.08408
1803.00000    0.06489
1803.50000    0.04507
1804.00000    0.02484
1804.50000    0.00441
1805.00000   -0.01602
1805.50000   -0.03625
1806.00000   -0.05608
1806.50000   -0.07534
1807.00000   -0.09383
1807.50000   -0.11138
1808.00000   -0.12782
1808.50000   -0.14297
1809.00000   -0.15667
1809.50000   -0.16878
1810.00000   -0.17914
1810.50000   -0.18765
1811.00000   -0.19420
1811.50000   -0.19870
1812.00000   -0.20113
1812.50000   -0.20145
1813.00000   -0.19971
1813.50000   -0.19595
1814.00000   -0.19028
1814.50000   -0.18283
1815.00000   -0.17379
1815.50000   -0.16336
1816.00000   -0.15176
1816.50000   -0.13925
1817.00000   -0.12608
1817.50000   -0.11252
1818.00000   -0.09883
1818.50000   -0.08525
1819.00000   -0.07199
1819.50000   -0.05925
1820.00000   -0.04718
1820.50000   -0.03591
1821.00000   -0.02551
1821.50000   -0.01602
1822.00000   -0.00747
1822.50000    0.00019
1823.00000    0.00700
1823.50000    0.01303
1824.00000    0.01836
1824.50000    0.02307
1825.00000    0.02724
1825.50000    0.03094
1826.00000    0.03421
1826.50000    0.03708
1827.00000    0.03956
1827.50000    0.04162
1828.00000    0.04323
1828.50000    0.04434
1829.00000    0.04487
1829.50000    0.04476
1830.00000    0.04393
1830.50000    0.04235
1831.00000    0.03998
1831.50000    0.03682
1832.00000    0.03289
1832.50000    0.02827
1833.00000    0.02306
1833.50000    0.01742
1834.00000    0.01154
1834.50000    0.00563
1835.00000   -0.00006
1835.50000   -0.00525
1836.00000   -0.00967
1836.50000   -0.01303
1837.00000   -0.01508
1837.50000   -0.01555
1838.00000   -0.01424
1838.50000   -0.01099
1839.00000   -0.00566
1839.50000    0.00179
1840.00000    0.01138
1840.50000    0.02304
1841.00000    0.03664
1841.50000    0.05199
1842.00000    0.06884
1842.50000    0.08690
1843.00000    0.10581
1843.50000    0.12522
1844.00000    0.14470
1844.50000    0.16385
1845.00000    0.18225
1845.50000    0.19948
1846.00000    0.21513
1846.50000    0.22885
1847.00000    0.24027
1847.50000    0.24910
1848.00000    0.25508
1848.50000    0.25799
1849.00000    0.25768
1849.50000    0.25406
1850.00000    0.24707
1850.50000    0.23675
1851.00000    0.22315
1851.50000    0.20643
1852.00000    0.18677
1852.50000    0.16442
1853.00000    0.13967
1853.50000    0.11288
1854.00000    0.08442
1854.50000    0.05472
1855.00000    0.02424
1855.50000   -0.00654
1856.00000   -0.03713
1856.50000   -0.06702
1857.00000   -0.09571
1857.50000   -0.12270
1858.00000   -0.14752
1858.50000   -0.16972
1859.00000   -0.18891
1859.50000   -0.20472
1860.00000   -0.21686
1860.50000   -0.22511
1861.00000   -0.22928
1861.50000   -0.22932
1862.00000   -0.22520
1862.50000   -0.21702
1863.00000   -0.20493
1863.50000   -0.18915
1864.00000   -0.17001
1864.50000   -0.14788
1865.00000   -0.12319
1865.50000   -0.09641
1866.00000   -0.06807
1866.50000   -0.03869
1867.00000   -0.00883
1867.50000    0.02096
1868.00000    0.05016
1868.50000    0.07825
1869.00000    0.10476
1869.50000    0.12927
1870.00000    0.15140
1870.50000    0.17082
1871.00000    0.18729
1871.50000    0.20061
1872.00000    0.21064
1872.50000    0.21732
1873.00000    0.22063
1873.50000    0.22062
1874.00000    0.21737
1874.50000    0.21104
1875.00000    0.20180
1875.50000    0.18987
1876.00000    0.17550
1876.50000    0.15898
1877.00000    0.14060
1877.50000    0.12070
1878.00000    0.09962
1878.50000    0.07771
1879.00000    0.05534
1879.50000    0.03290
1880.00000    0.01075
1880.50000   -0.01073
1881.00000   -0.03117
1881.50000   -0.05023
1882.00000   -0.06758
1882.50000   -0.08293
1883.00000   -0.09603
1883.50000   -0.10668
1884.00000   -0.11471
1884.50000   -0.12004
1885.00000   -0.12263
1885.50000   -0.12253
1886.00000   -0.11982
1886.50000   -0.11466
1887.00000   -0.10729
1887.50000   -0.09796
1888.00000   -0.08700
1888.50000   -0.07474
1889.00000   -0.06154
1889.50000   -0.04777
1890.00000   -0.03381
1890.50000   -0.01998
1891.00000   -0.00662
1891.50000    0.00601
1892.00000    0.01768
1892.50000    0.02819
1893.00000    0.03742
1893.50000    0.04529
1894.00000    0.05176
1894.50000    0.05685
1895.00000    0.06060
1895.50000    0.06308
1896.00000    0.06438
1896.50000    0.06461
1897.00000    0.06388
1897.50000    0.06228
1898.00000    0.05992
1898.50000    0.05688
1899.00000    0.05325
1899.50000    0.04908
1900.00000    0.04443
1900.50000    0.03936
1901.00000    0.03389
1901.50000    0.02809
1902.00000    0.02200
1902.50000    0.01568
1903.00000    0.00921
1903.50000    0.00267
1904.00000   -0.00385
1904.50000   -0.01023
1905.00000   -0.01635
1905.50000   -0.02209
1906.00000   -0.02732
1906.50000   -0.03193
1907.00000   -0.03581
1907.50000   -0.03887
1908.00000   -0.04105
1908.50000   -0.04232
1909.00000   -0.04269
1909.50000   -0.04221
1910.00000   -0.04096
1910.50000   -0.03907
1911.00000   -0.03669
1911.50000   -0.03402
1912.00000   -0.03126
1912.50000   -0.02866
1913.00000   -0.02643
1913.50000   -0.02482
1914.00000   -0.02403
1914.50000   -0.02426
1915.00000   -0.02565
1915.50000   -0.02831
1916.00000   -0.03231
1916.50000   -0.03764
1917.00000   -0.04424
1917.50000   -0.05199
1918.00000   -0.06071
1918.50000   -0.07016
1919.00000   -0.08005
1919.50000   -0.09006
1920.00000   -0.09983
1920.50000   -0.10899
1921.00000   -0.11716
1921.50000   -0.12398
1922.00000   -0.12911
1922.50000   -0.13225
1923.00000   -0.13315
1923.50000   -0.13162
1924.00000   -0.12756
1924.50000   -0.12091
1925.00000   -0.11173
1925.50000   -0.10013
1926.00000   -0.08630
1926.50000   -0.07049
1927.00000   -0.05301
1927.50000   -0.03422
1928.00000   -0.01448
1928.50000    0.00583
1929.00000    0.02633
1929.50000    0.04667
1930.00000    0.06655
1930.50000    0.08569
1931.00000    0.10391
1931.50000    0.12106
1932.00000    0.13707
1932.50000    0.15192
1933.00000    0.16566
1933.50000    0.17839
1934.00000    0.19023
1934.50000    0.20134
1935.00000    0.21187
1935.50000    0.22199
1936.00000    0.23183
1936.50000    0.24151
1937.00000    0.25111
1937.50000    0.26064
1938.00000    0.27010
1938.50000    0.27942
1939.00000    0.28849
1939.50000    0.29717
1940.00000    0.30527
1940.50000    0.31261
1941.00000    0.31898
1941.50000    0.32417
1942.00000    0.32800
1942.50000    0.33030
1943.00000    0.33095
1943.50000    0.32986
1944.00000    0.32698
1944.50000    0.32232
1945.00000    0.31592
1945.50000    0.30787
1946.00000    0.29830
1946.50000    0.28735
1947.00000    0.27519
1947.50000    0.26202
1948.00000    0.24803
1948.50000    0.23338
1949.00000    0.21826
1949.50000    0.20283
1950.00000    0.18721
1950.50000    0.17152
1951.00000    0.15585
1951.50000    0.14027
1952.00000    0.12483
1952.50000    0.10957
1953.00000    0.09452
1953.50000    0.07970
1954.00000    0.06512
1954.50000    0.05082
1955.00000    0.03681
1955.50000    0.02313
1956.00000    0.00982
1956.50000   -0.00307
1957.00000   -0.01548
1957.50000   -0.02735
1958.00000   -0.03860
1958.50000   -0.04918
1959.00000   -0.05900
1959.50000   -0.06801
1960.00000   -0.07614
1960.50000   -0.08336
1961.00000   -0.08961
1961.50000   -0.09488
1962.00000   -0.09916
1962.50000   -0.10244
1963.00000   -0.10474
1963.50000   -0.10611
1964.00000   -0.10658
1964.50000   -0.10620
1965.00000   -0.10505
1965.50000   -0.10319
1966.00000   -0.10071
1966.50000   -0.09768
1967.00000   -0.09419
1967.50000   -0.09032
1968.00000   -0.08614
1968.50000   -0.08172
1969.00000   -0.07713
1969.50000   -0.07240
1970.00000   -0.06757
1970.50000   -0.06267
1971.00000   -0.05768
1971.50000   -0.05261
1972.00000   -0.04742
1972.50000   -0.04205
1973.00000   -0.03645
1973.50000   -0.03054
1974.00000   -0.02422
1974.50000   -0.01740
1975.00000   -0.00998
1975.50000   -0.00184
1976.00000    0.00711
1976.50000    0.01698
1977.00000    0.02783
1977.50000    0.03976
1978.00000    0.05280
1978.50000    0.06700
1979.00000    0.08236
1979.50000    0.09887
1980.00000    0.11652
1980.50000    0.13524
1981.00000    0.15496
1981.50000    0.17561
1982.00000    0.19709
1982.50000    0.21929
1983.00000    0.24213
1983.50000    0.26550
1984.00000    0.28931
1984.50000    0.31348
1985.00000    0.33794
1985.50000    0.36264
1986.00000    0.38753
1986.50000    0.41259
1987.00000    0.43781
1987.50000    0.46316
1988.00000    0.48864
1988.50000    0.51423
1989.00000    0.53989
1989.50000    0.56558
1990.00000    0.59121
1990.50000    0.61667
1991.00000    0.64181
1991.50000    0.66643
1992.00000    0.69029
1992.50000    0.71311
1993.00000    0.73458
1993.50000    0.75434
1994.00000    0.77201
1994.50000    0.78721
1995.00000    0.79953
1995.50000    0.80861
1996.00000    0.81408
1996.50000    0.81564
1997.00000    0.81303
1997.50000    0.80605
1998.00000    0.79461
1998.50000    0.77869
1999.00000    0.75838
1999.50000    0.73385
2000.00000    0.70539
2000.50000    0.67338
2001.00000    0.63829
2001.50000    0.60065
2002.00000    0.56107
2002.50000    0.52019
2003.00000    0.47869
2003.50000    0.43724
2004.00000    0.39651
2004.50000    0.35710
2005.00000    0.31959
2005.50000    0.28446
2006.00000    0.25211
2006.50000    0.22282
2007.00000    0.19678
2007.50000    0.17406
2008.00000    0.15460
2008.50000    0.13825
2009.00000    0.12474
2009.50000    0.11373
2010.00000    0.10478
2010.50000    0.09742
2011.00000    0.09112
2011.50000    0.08535
2012.00000    0.07959
2012.50000    0.07332
2013.00000    0.06611
2013.50000    0.05755
2014.00000    0.04732
2014.50000    0.03520
2015.00000    0.02104
2015.50000    0.00483
2016.00000   -0.01339
2016.50000   -0.03345
2017.00000   -0.05509
2017.50000   -0.07798
2018.00000   -0.10171
2018.50000   -0.12584
2019.00000   -0.14987
2019.50000   -0.17326
2020.00000   -0.19552
2020.50000   -0.21612
2021.00000   -0.23460
2021.50000   -0.25053
2022.00000   -0.26356
2022.50000   -0.27339
2023.00000   -0.27984
2023.50000   -0.28280
2024.00000   -0.28226
2024.50000   -0.27833
2025.00000   -0.27118
2025.50000   -0.26109
2026.00000   -0.24842
2026.50000   -0.23359
2027.00000   -0.21706
2027.50000   -0.19933
2028.00000   -0.18091
2028.50000   -0.16230
2029.00000   -0.14397
2029.50000   -0.12634
2030.00000   -0.10977
2030.50000   -0.09455
2031.00000   -0.08085
2031.50000   -0.06879
2032.00000   -0.05835
2032.50000   -0.04945
2033.00000   -0.04191
2033.50000   -0.03546
2034.00000   -0.02979
2034.50000   -0.02456
2035.00000   -0.01938
2035.50000   -0.01389
2036.00000   -0.00774
2036.50000   -0.00062
2037.00000    0.00769
2037.50000    0.01736
2038.00000    0.02848
2038.50000    0.04102
2039.00000    0.05489
2039.50000    0.06989
2040.00000    0.08575
2040.50000    0.10215
2041.00000    0.11870
2041.50000    0.13500
2042.00000    0.15062
2042.50000    0.16515
2043.00000    0.17821
2043.50000    0.18945
2044.00000    0.19860
2044.50000    0.20543
2045.00000    0.20979
2045.50000    0.21161
2046.00000    0.21088
2046.50000    0.20767
2047.00000    0.20208
2047.50000    0.19428
2048.00000    0.18447
2048.50000    0.17287
2049.00000    0.15969
2049.50000    0.14517
2050.00000    0.12953
2050.50000    0.11297
2051.00000    0.09567
2051.50000    0.07780
2052.00000    0.05952
2052.50000    0.04095
2053.00000    0.02224
2053.50000    0.00350
2054.00000   -0.01511
2054.50000   -0.03346
2055.00000   -0.05137
2055.50000   -0.06864
2056.00000   -0.08507
2056.50000   -0.10042
2057.00000   -0.11443
2057.50000   -0.12684
2058.00000   -0.13740
2058.50000   -0.14584
2059.00000   -0.15193
2059.50000   -0.15546
2060.00000   -0.15629
2060.50000   -0.15430
2061.00000   -0.14946
2061.50000   -0.14178
2062.00000   -0.13138
2062.50000   -0.11842
2063.00000   -0.10314
2063.50000   -0.08584
2064.00000   -0.06687
2064.50000   -0.04664
2065.00000   -0.02557
2065.50000   -0.00410
2066.00000    0.01732
2066.50000    0.03826
2067.00000    0.05831
2067.50000    0.07713
2068.00000    0.09440
2068.50000    0.10988
2069.00000    0.12340
2069.50000    0.13487
2070.00000    0.14424
2070.50000    0.15158
2071.00000    0.15701
2071.50000    0.16069
2072.00000    0.16285
2072.50000    0.16376
2073.00000    0.16371
2073.50000    0.16299
2074.00000    0.16191
2074.50000    0.16073
2075.00000    0.15971
2075.50000    0.15905
2076.00000    0.15890
2076.50000    0.15936
2077.00000    0.16045
2077.50000    0.16215
2078.00000    0.16435
2078.50000    0.16692
2079.00000    0.16967
2079.50000    0.17235
2080.00000    0.17472
2080.50000    0.17651
2081.00000    0.17745
2081.50000    0.17732
2082.00000    0.17587
2082.50000    0.17294
2083.00000    0.16839
2083.50000    0.16213
2084.00000    0.15415
2084.50000    0.14446
2085.00000    0.13313
2085.50000    0.12029
2086.00000    0.10609
2086.50000    0.09069
2087.00000    0.07430
2087.50000    0.05710
2088.00000    0.03927
2088.50000    0.02101
2089.00000    0.00245
2089.50000   -0.01627
2090.00000   -0.03505
2090.50000   -0.05379
2091.00000   -0.07245
2091.50000   -0.09096
2092.00000   -0.10928
2092.50000   -0.12737
2093.00000   -0.14518
2093.50000   -0.16263
2094.00000   -0.17964
2094.50000   -0.19608
2095.00000   -0.21180
2095.50000   -0.22662
2096.00000   -0.24034
2096.50000   -0.25273
2097.00000   -0.26355
2097.50000   -0.27256
2098.00000   -0.27952
2098.50000   -0.28421
2099.00000   -0.28644
2099.50000   -0.28607
2100.00000   -0.28300
2100.50000   -0.27718
2101.00000   -0.26863
2101.50000   -0.25743
2102.00000   -0.24372
2102.50000   -0.22769
2103.00000   -0.20959
2103.50000   -0.18970
2104.00000   -0.16833
2104.50000   -0.14582
2105.00000   -0.12249
2105.50000   -0.09868
2106.00000   -0.07470
2106.50000   -0.05084
2107.00000   -0.02737
2107.50000   -0.00451
2108.00000    0.01754
2108.50000    0.03862
2109.00000    0.05860
2109.50000    0.07736
2110.00000    0.09481
2110.50000    0.11086
2111.00000    0.12543
2111.50000    0.13843
2112.00000    0.14976
2112.50000    0.15930
2113.00000    0.16694
2113.50000    0.17255
2114.00000    0.17599
2114.50000    0.17712
2115.00000    0.17583
2115.50000    0.17201
2116.00000    0.16560
2116.50000    0.15656
2117.00000    0.14492
2117.50000    0.13075
2118.00000    0.11420
2118.50000    0.09546
2119.00000    0.07480
2119.50000    0.05256
2120.00000    0.02910
2120.50000    0.00487
2121.00000   -0.01969
2121.50000   -0.04410
2122.00000   -0.06785
2122.50000   -0.09047
2123.00000   -0.11150
2123.50000   -0.13049
2124.00000   -0.14705
2124.50000   -0.16083
2125.00000   -0.17154
2125.50000   -0.17896
2126.00000   -0.18290
2126.50000   -0.18328
2127.00000   -0.18005
2127.50000   -0.17323
2128.00000   -0.16290
2128.50000   -0.14919
2129.00000   -0.13227
2129.50000   -0.11237
2130.00000   -0.08973
2130.50000   -0.06466
2131.00000   -0.03746
2131.50000   -0.00849
2132.00000    0.02191
2132.50000    0.05336
2133.00000    0.08547
2133.50000    0.11786
2134.00000    0.15015
2134.50000    0.18196
2135.00000    0.21294
2135.50000    0.24273
2136.00000    0.27104
2136.50000    0.29758
2137.00000    0.32211
2137.50000    0.34444
2138.00000    0.36440
2138.50000    0.38190
2139.00000    0.39688
2139.50000    0.40934
2140.00000    0.41932
2140.50000    0.42690
2141.00000    0.43221
2141.50000    0.43541
2142.00000    0.43669
2142.50000    0.43625
2143.00000    0.43432
2143.50000    0.43113
2144.00000    0.42693
2144.50000    0.42195
2145.00000    0.41641
2145.50000    0.41053
2146.00000    0.40451
2146.50000    0.39852
2147.00000    0.39271
2147.50000    0.38720
2148.00000    0.38208
2148.50000    0.37741
2149.00000    0.37319
2149.50000    0.36941
2150.00000    0.36602
2150.50000    0.36290
2151.00000    0.35995
2151.50000    0.35700
2152.00000    0.35387
2152.50000    0.35036
2153.00000    0.34627
2153.50000    0.34138
2154.00000    0.33550
2154.50000    0.32844
2155.00000    0.32004
2155.50000    0.31020
2156.00000    0.29885
2156.50000    0.28594
2157.00000    0.27153
2157.50000    0.25569
2158.00000    0.23855
2158.50000    0.22031
2159.00000    0.20120
2159.50000    0.18149
2160.00000    0.16145
2160.50000    0.14141
2161.00000    0.12168
2161.50000    0.10255
2162.00000    0.08432
2162.50000    0.06725
2163.00000    0.05157
2163.50000    0.03747
2164.00000    0.02508
2164.50000    0.01451
2165.00000    0.00579
2165.50000   -0.00106
2166.00000   -0.00609
2166.50000   -0.00939
2167.00000   -0.01107
2167.50000   -0.01128
2168.00000   -0.01020
2168.50000   -0.00802
2169.00000   -0.00495
2169.50000   -0.00121
2170.00000    0.00300
2170.50000    0.00746
2171.00000    0.01195
2171.50000    0.01629
2172.00000    0.02030
2172.50000    0.02383
2173.00000    0.02674
2173.50000    0.02893
2174.00000    0.03035
2174.50000    0.03096
2175.00000    0.03075
2175.50000    0.02977
2176.00000    0.02809
2176.50000    0.02581
2177.00000    0.02306
2177.50000    0.01999
2178.00000    0.01677
2178.50000    0.01356
2179.00000    0.01055
2179.50000    0.00788
2180.00000    0.00571
2180.50000    0.00416
2181.00000    0.00332
2181.50000    0.00324
2182.00000    0.00397
2182.50000    0.00547
2183.00000    0.00771
2183.50000    0.01059
2184.00000    0.01402
2184.50000    0.01784
2185.00000    0.02190
2185.50000    0.02604
2186.00000    0.03006
2186.50000    0.03378
2187.00000    0.03701
2187.50000    0.03958
2188.00000    0.04131
2188.50000    0.04204
2189.00000    0.04162
2189.50000    0.03993
2190.00000    0.03685
2190.50000    0.03231
2191.00000    0.02624
2191.50000    0.01862
2192.00000    0.00945
2192.50000   -0.00122
2193.00000   -0.01331
2193.50000   -0.02670
2194.00000   -0.04122
2194.50000   -0.05664
2195.00000   -0.07273
2195.50000   -0.08920
2196.00000   -0.10570
2196.50000   -0.12191
2197.00000   -0.13746
2197.50000   -0.15199
2198.00000   -0.16514
2198.50000   -0.17658
2199.00000   -0.18602
2199.50000   -0.19320
2200.00000   -0.19793
2200.50000   -0.20010
2201.00000   -0.19963
2201.50000   -0.19654
2202.00000   -0.19092
2202.50000   -0.18291
2203.00000   -0.17274
2203.50000   -0.16065
2204.00000   -0.14694
2204.50000   -0.13194
2205.00000   -0.11598
2205.50000   -0.09937
2206.00000   -0.08244
2206.50000   -0.06547
2207.00000   -0.04871
2207.50000   -0.03236
2208.00000   -0.01659
2208.50000   -0.00152
2209.00000    0.01279
2209.50000    0.02629
2210.00000    0.03898
2210.50000    0.05087
2211.00000    0.06202
2211.50000    0.07244
2212.00000    0.08219
2212.50000    0.09130
2213.00000    0.09977
2213.50000    0.10761
2214.00000    0.11478
2214.50000    0.12123
2215.00000    0.12688
2215.50000    0.13163
2216.00000    0.13538
2216.50000    0.13800
2217.00000    0.13937
2217.50000    0.13937
2218.00000    0.13789
2218.50000    0.13484
2219.00000    0.13015
2219.50000    0.12381
2220.00000    0.11583
2220.50000    0.10625
2221.00000    0.09519
2221.50000    0.08280
2222.00000    0.06928
2222.50000    0.05489
2223.00000    0.03992
2223.50000    0.02470
2224.00000    0.00961
2224.50000   -0.00496
2225.00000   -0.01862
2225.50000   -0.03095
2226.00000   -0.04157
2226.50000   -0.05011
2227.00000   -0.05624
2227.50000   -0.05966
2228.00000   -0.06016
2228.50000   -0.05757
2229.00000   -0.05180
2229.50000   -0.04285
2230.00000   -0.03077
2230.50000   -0.01572
2231.00000    0.00211
2231.50000    0.02243
2232.00000    0.04492
2232.50000    0.06921
2233.00000    0.09490
2233.50000    0.12160
2234.00000    0.14889
2234.50000    0.17637
2235.00000    0.20368
2235.50000    0.23049
2236.00000    0.25650
2236.50000    0.28147
2237.00000    0.30520
2237.50000    0.32755
2238.00000    0.34839
2238.50000    0.36767
2239.00000    0.38535
2239.50000    0.40141
2240.00000    0.41583
2240.50000    0.42861
2241.00000    0.43975
2241.50000    0.44920
2242.00000    0.45693
2242.50000    0.46286
2243.00000    0.46693
2243.50000    0.46901
2244.00000    0.46899
2244.50000    0.46676
2245.00000    0.46217
2245.50000    0.45513
2246.00000    0.44554
2246.50000    0.43333
2247.00000    0.41849
2247.50000    0.40103
2248.00000    0.38103
2248.50000    0.35860
2249.00000    0.33393
2249.50000    0.30725
2250.00000    0.27883
2250.50000    0.24901
2251.00000    0.21812
2251.50000    0.18655
2252.00000    0.15469
2252.50000    0.12293
2253.00000    0.09165
2253.50000    0.06122
2254.00000    0.03198
2254.50000    0.00422
2255.00000   -0.02180
2255.50000   -0.04584
2256.00000   -0.06774
2256.50000   -0.08736
2257.00000   -0.10464
2257.50000   -0.11951
2258.00000   -0.13198
2258.50000   -0.14206
2259.00000   -0.14981
2259.50000   -0.15530
2260.00000   -0.15862
2260.50000   -0.15986
2261.00000   -0.15913
2261.50000   -0.15656
2262.00000   -0.15225
2262.50000   -0.14635
2263.00000   -0.13897
2263.50000   -0.13025
2264.00000   -0.12034
2264.50000   -0.10939
2265.00000   -0.09756
2265.50000   -0.08505
2266.00000   -0.07203
2266.50000   -0.05872
2267.00000   -0.04534
2267.50000   -0.03211
2268.00000   -0.01927
2268.50000   -0.00707
2269.00000    0.00426
2269.50000    0.01449
2270.00000    0.02341
2270.50000    0.03085
2271.00000    0.03666
2271.50000    0.04072
2272.00000    0.04299
2272.50000    0.04346
2273.00000    0.04219
2273.50000    0.03930
2274.00000    0.03496
2274.50000    0.02940
2275.00000    0.02290
2275.50000    0.01578
2276.00000    0.00839
2276.50000    0.00110
2277.00000   -0.00574
2277.50000   -0.01176
2278.00000   -0.01665
2278.50000   -0.02014
2279.00000   -0.02199
2279.50000   -0.02207
2280.00000   -0.02030
2280.50000   -0.01668
2281.00000   -0.01131
2281.50000   -0.00437
2282.00000    0.00392
2282.50000    0.01323
2283.00000    0.02321
2283.50000    0.03345
2284.00000    0.04354
2284.50000    0.05306
2285.00000    0.06160
2285.50000    0.06878
2286.00000    0.07428
2286.50000    0.07781
2287.00000    0.07917
2287.50000    0.07822
2288.00000    0.07490
2288.50000    0.06922
2289.00000    0.06125
2289.50000    0.05115
2290.00000    0.03911
2290.50000    0.02538
2291.00000    0.01025
2291.50000   -0.00597
2292.00000   -0.02294
2292.50000   -0.04034
2293.00000   -0.05780
2293.50000   -0.07501
2294.00000   -0.09164
2294.50000   -0.10737
2295.00000   -0.12190
2295.50000   -0.13498
2296.00000   -0.14635
2296.50000   -0.15578
2297.00000   -0.16307
2297.50000   -0.16806
2298.00000   -0.17062
2298.50000   -0.17063
2299.00000   -0.16804
2299.50000   -0.16283
2300.00000   -0.15503
2300.50000   -0.14472
2301.00000   -0.13202
2301.50000   -0.11711
2302.00000   -0.10019
2302.50000   -0.08155
2303.00000   -0.06148
2303.50000   -0.04030
2304.00000   -0.01838
2304.50000    0.00392
2305.00000    0.02625
2305.50000    0.04824
2306.00000    0.06956
2306.50000    0.08990
2307.00000    0.10900
2307.50000    0.12663
2308.00000    0.14261
2308.50000    0.15682
2309.00000    0.16919
2309.50000    0.17969
2310.00000    0.18834
2310.50000    0.19521
2311.00000    0.20037
2311.50000    0.20396
2312.00000    0.20611
2312.50000    0.20696
2313.00000    0.20666
2313.50000    0.20535
2314.00000    0.20315
2314.50000    0.20018
2315.00000    0.19652
2315.50000    0.19224
2316.00000    0.18737
2316.50000    0.18195
2317.00000    0.17594
2317.50000    0.16934
2318.00000    0.16209
2318.50000    0.15414
2319.00000    0.14541
2319.50000    0.13585
2320.00000    0.12537
2320.50000    0.11394
2321.00000    0.10149
2321.50000    0.08801
2322.00000    0.07349
2322.50000    0.05797
2323.00000    0.04149
2323.50000    0.02415
2324.00000    0.00606
2324.50000   -0.01261
2325.00000   -0.03170
2325.50000   -0.05098
2326.00000   -0.07022
2326.50000   -0.08915
2327.00000   -0.10751
2327.50000   -0.12501
2328.00000   -0.14136
2328.50000   -0.15625
2329.00000   -0.16940
2329.50000   -0.18053
2330.00000   -0.18937
2330.50000   -0.19566
2331.00000   -0.19917
2331.50000   -0.19970
2332.00000   -0.19708
2332.50000   -0.19115
2333.00000   -0.18183
2333.50000   -0.16904
2334.00000   -0.15280
2334.50000   -0.13315
2335.00000   -0.11020
2335.50000   -0.08414
2336.00000   -0.05523
2336.50000   -0.02379
2337.00000    0.00977
2337.50000    0.04497
2338.00000    0.08126
2338.50000    0.11804
2339.00000    0.15465
2339.50000    0.19041
2340.00000    0.22461
2340.50000    0.25655
2341.00000    0.28556
2341.50000    0.31103
2342.00000    0.33240
2342.50000    0.34923
2343.00000    0.36116
2343.50000    0.36799
2344.00000    0.36964
2344.50000    0.36616
2345.00000    0.35774
2345.50000    0.34473
2346.00000    0.32755
2346.50000    0.30675
2347.00000    0.28295
2347.50000    0.25682
2348.00000    0.22907
2348.50000    0.20037
2349.00000    0.17140
2349.50000    0.14279
2350.00000    0.11506
2350.50000    0.08869
2351.00000    0.06404
2351.50000    0.04136
2352.00000    0.02081
2352.50000    0.00247
2353.00000   -0.01371
2353.50000   -0.02783
2354.00000   -0.04005
2354.50000   -0.05058
2355.00000   -0.05966
2355.50000   -0.06754
2356.00000   -0.07446
2356.50000   -0.08065
2357.00000   -0.08629
2357.50000   -0.09155
2358.00000   -0.09652
2358.50000   -0.10128
2359.00000   -0.10584
2359.50000   -0.11015
2360.00000   -0.11415
2360.50000   -0.11772
2361.00000   -0.12072
2361.50000   -0.12301
2362.00000   -0.12441
2362.50000   -0.12476
2363.00000   -0.12392
2363.50000   -0.12176
2364.00000   -0.11818
2364.50000   -0.11312
2365.00000   -0.10656
2365.50000   -0.09854
2366.00000   -0.08915
2366.50000   -0.07852
2367.00000   -0.06684
2367.50000   -0.05432
2368.00000   -0.04124
2368.50000   -0.02787
2369.00000   -0.01451
2369.50000   -0.00146
2370.00000    0.01102
2370.50000    0.02266
2371.00000    0.03327
2371.50000    0.04270
2372.00000    0.05086
2372.50000    0.05774
2373.00000    0.06339
2373.50000    0.06794
2374.00000    0.07156
2374.50000    0.07450
2375.00000    0.07702
2375.50000    0.07941
2376.00000    0.08197
2376.50000    0.08496
2377.00000    0.08862
2377.50000    0.09311
2378.00000    0.09856
2378.50000    0.10498
2379.00000    0.11232
2379.50000    0.12044
2380.00000    0.12913
2380.50000    0.13808
2381.00000    0.14695
2381.50000    0.15536
2382.00000    0.16292
2382.50000    0.16922
2383.00000    0.17390
2383.50000    0.17661
2384.00000    0.17710
2384.50000    0.17517
2385.00000    0.17068
2385.50000    0.16363
2386.00000    0.15404
2386.50000    0.14205
2387.00000    0.12785
2387.50000    0.11169
2388.00000    0.09384
2388.50000    0.07462
2389.00000    0.05435
2389.50000    0.03335
2390.00000    0.01190
2390.50000   -0.00971
2391.00000   -0.03124
2391.50000   -0.05248
2392.00000   -0.07326
2392.50000   -0.09341
2393.00000   -0.11279
2393.50000   -0.13128
2394.00000   -0.14876
2394.50000   -0.16508
2395.00000   -0.18011
2395.50000   -0.19368
2396.00000   -0.20560
2396.50000   -0.21565
2397.00000   -0.22362
2397.50000   -0.22926
2398.00000   -0.23235
2398.50000   -0.23265
2399.00000   -0.22996
2399.50000   -0.22411
2400.00000   -0.21499
2400.50000   -0.20255
2401.00000   -0.18680
2401.50000   -0.16784
2402.00000   -0.14584
2402.50000   -0.12107
2403.00000   -0.09385
2403.50000   -0.06458
2404.00000   -0.03373
2404.50000   -0.00179
2405.00000    0.03070
2405.50000    0.06321
2406.00000    0.09519
2406.50000    0.12611
2407.00000    0.15549
2407.50000    0.18288
2408.00000    0.20788
2408.50000    0.23016
2409.00000    0.24945
2409.50000    0.26553
2410.00000    0.27826
2410.50000    0.28755
2411.00000    0.29336
2411.50000    0.29571
2412.00000    0.29464
2412.50000    0.29026
2413.00000    0.28269
2413.50000    0.27208
2414.00000    0.25861
2414.50000    0.24250
2415.00000    0.22397
2415.50000    0.20330
2416.00000    0.18077
2416.50000    0.15669
2417.00000    0.13142
2417.50000    0.10532
2418.00000    0.07878
2418.50000    0.05220
2419.00000    0.02600
2419.50000    0.00058
2420.00000   -0.02365
2420.50000   -0.04634
2421.00000   -0.06713
2421.50000   -0.08575
2422.00000   -0.10196
2422.50000   -0.11558
2423.00000   -0.12654
2423.50000   -0.13479
2424.00000   -0.14037
2424.50000   -0.14339
2425.00000   -0.14401
2425.50000   -0.14243
2426.00000   -0.13888
2426.50000   -0.13360
2427.00000   -0.12685
2427.50000   -0.11885
2428.00000   -0.10983
2428.50000   -0.09997
2429.00000   -0.08943
2429.50000   -0.07831
2430.00000   -0.06669
2430.50000   -0.05462
2431.00000   -0.04214
2431.50000   -0.02926
2432.00000   -0.01600
2432.50000   -0.00240
2433.00000    0.01149
2433.50000    0.02559
2434.00000    0.03975
2434.50000    0.05383
2435.00000    0.06762
2435.50000    0.08088
2436.00000    0.09336
2436.50000    0.10479
2437.00000    0.11491
2437.50000    0.12346
2438.00000    0.13024
2438.50000    0.13507
2439.00000    0.13786
2439.50000    0.13856
2440.00000    0.13723
2440.50000    0.13397
2441.00000    0.12898
2441.50000    0.12253
2442.00000    0.11494
2442.50000    0.10657
2443.00000    0.09782
2443.50000    0.08909
2444.00000    0.08078
2444.50000    0.07325
2445.00000    0.06682
2445.50000    0.06175
2446.00000    0.05823
2446.50000    0.05634
2447.00000    0.05609
2447.50000    0.05739
2448.00000    0.06006
2448.50000    0.06382
2449.00000    0.06832
2449.50000    0.07316
2450.00000    0.07787
2450.50000    0.08195
2451.00000    0.08492
2451.50000    0.08628
2452.00000    0.08558
2452.50000    0.08242
2453.00000    0.07650
2453.50000    0.06759
2454.00000    0.05558
2454.50000    0.04048
2455.00000    0.02243
2455.50000    0.00170
2456.00000   -0.02132
2456.50000   -0.04614
2457.00000   -0.07216
2457.50000   -0.09870
2458.00000   -0.12504
2458.50000   -0.15043
2459.00000   -0.17413
2459.50000   -0.19543
2460.00000   -0.21369
2460.50000   -0.22836
2461.00000   -0.23898
2461.50000   -0.24526
2462.00000   -0.24700
2462.50000   -0.24419
2463.00000   -0.23693
2463.50000   -0.22547
2464.00000   -0.21019
2464.50000   -0.19154
2465.00000   -0.17008
2465.50000   -0.14643
2466.00000   -0.12122
2466.50000   -0.09511
2467.00000   -0.06872
2467.50000   -0.04265
2468.00000   -0.01745
2468.50000    0.00639
2469.00000    0.02849
2469.50000    0.04850
2470.00000    0.06618
2470.50000    0.08136
2471.00000    0.09396
2471.50000    0.10395
2472.00000    0.11137
2472.50000    0.11630
2473.00000    0.11891
2473.50000    0.11936
2474.00000    0.11789
2474.50000    0.11475
2475.00000    0.11020
2475.50000    0.10455
2476.00000    0.09810
2476.50000    0.09116
2477.00000    0.08405
2477.50000    0.07706
2478.00000    0.07048
2478.50000    0.06456
2479.00000    0.05952
2479.50000    0.05552
2480.00000    0.05267
2480.50000    0.05102
2481.00000    0.05055
2481.50000    0.05118
2482.00000    0.05275
2482.50000    0.05504
2483.00000    0.05781
2483.50000    0.06073
2484.00000    0.06350
2484.50000    0.06576
2485.00000    0.06719
2485.50000    0.06749
2486.00000    0.06640
2486.50000    0.06370
2487.00000    0.05926
2487.50000    0.05300
2488.00000    0.04494
2488.50000    0.03516
2489.00000    0.02383
2489.50000    0.01116
2490.00000   -0.00255
2490.50000   -0.01698
2491.00000   -0.03178
2491.50000   -0.04658
2492.00000   -0.06099
2492.50000   -0.07465
2493.00000   -0.08724
2493.50000   -0.09843
2494.00000   -0.10796
2494.50000   -0.11562
2495.00000   -0.12122
2495.50000   -0.12464
2496.00000   -0.12581
2496.50000   -0.12469
2497.00000   -0.12130
2497.50000   -0.11567
2498.00000   -0.10791
2498.50000   -0.09812
2499.00000   -0.08644
2499.50000   -0.07305
2500.00000   -0.05812
2500.50000   -0.04188
2501.00000   -0.02453
2501.50000   -0.00631
2502.00000    0.01254
2502.50000    0.03176
2503.00000    0.05110
2503.50000    0.07032
2504.00000    0.08917
2504.50000    0.10740
2505.00000    0.12480
2505.50000    0.14115
2506.00000    0.15627
2506.50000    0.16998
2507.00000    0.18215
2507.50000    0.19264
2508.00000    0.20136
2508.50000    0.20822
2509.00000    0.21317
2509.50000    0.21617
2510.00000    0.21718
2510.50000    0.21619
2511.00000    0.21320
2511.50000    0.20821
2512.00000    0.20124
2512.50000    0.19231
2513.00000    0.18147
2513.50000    0.16876
2514.00000    0.15426
2514.50000    0.13806
2515.00000    0.12026
2515.50000    0.10102
2516.00000    0.08049
2516.50000    0.05886
2517.00000    0.03636
2517.50000    0.01322
2518.00000   -0.01028
2518.50000   -0.03389
2519.00000   -0.05731
2519.50000   -0.08027
2520.00000   -0.10248
2520.50000   -0.12369
2521.00000   -0.14366
2521.50000   -0.16218
2522.00000   -0.17906
2522.50000   -0.19417
2523.00000   -0.20740
2523.50000   -0.21866
2524.00000   -0.22793
2524.50000   -0.23517
2525.00000   -0.24042
2525.50000   -0.24370
2526.00000   -0.24505
2526.50000   -0.24453
2527.00000   -0.24221
2527.50000   -0.23816
2528.00000   -0.23243
2528.50000   -0.22511
2529.00000   -0.21626
2529.50000   -0.20596
2530.00000   -0.19430
2530.50000   -0.18135
2531.00000   -0.16723
2531.50000   -0.15204
2532.00000   -0.13592
2532.50000   -0.11899
2533.00000   -0.10141
2533.50000   -0.08335
2534.00000   -0.06496
2534.50000   -0.04642
2535.00000   -0.02791
2535.50000   -0.00959
2536.00000    0.00838
2536.50000    0.02584
2537.00000    0.04266
2537.50000    0.05870
2538.00000    0.07384
2538.50000    0.08798
2539.00000    0.10100
2539.50000    0.11282
2540.00000    0.12334
2540.50000    0.13246
2541.00000    0.14009
2541.50000    0.14614
2542.00000    0.15051
2542.50000    0.15311
2543.00000    0.15387
2543.50000    0.15272
2544.00000    0.14961
2544.50000    0.14452
2545.00000    0.13747
2545.50000    0.12851
2546.00000    0.11773
2546.50000    0.10526
2547.00000    0.09131
2547.50000    0.07608
2548.00000    0.05985
2548.50000    0.04290
2549.00000    0.02557
2549.50000    0.00817
2550.00000   -0.00895
2550.50000   -0.02547
2551.00000   -0.04110
2551.50000   -0.05556
2552.00000   -0.06861
2552.50000   -0.08007
2553.00000   -0.08980
2553.50000   -0.09772
2554.00000   -0.10379
2554.50000   -0.10804
2555.00000   -0.11053
2555.50000   -0.11136
2556.00000   -0.11069
2556.50000   -0.10866
2557.00000   -0.10548
2557.50000   -0.10133
2558.00000   -0.09641
2558.50000   -0.09090
2559.00000   -0.08499
2559.50000   -0.07883
2560.00000   -0.07255
2560.50000   -0.06626
2561.00000   -0.06004
2561.50000   -0.05394
2562.00000   -0.04796
2562.50000   -0.04210
2563.00000   -0.03633
2563.50000   -0.03058
2564.00000   -0.02479
2564.50000   -0.01889
2565.00000   -0.01277
2565.50000   -0.00638
2566.00000    0.00035
2566.50000    0.00748
2567.00000    0.01503
2567.50000    0.02300
2568.00000    0.03136
2568.50000    0.04006
2569.00000    0.04902
2569.50000    0.05813
2570.00000    0.06726
2570.50000    0.07629
2571.00000    0.08506
2571.50000    0.09344
2572.00000    0.10129
2572.50000    0.10850
2573.00000    0.11499
2573.50000    0.12067
2574.00000    0.12553
2574.50000    0.12953
2575.00000    0.13272
2575.50000    0.13512
2576.00000    0.13680
2576.50000    0.13784
2577.00000    0.13831
2577.50000    0.13830
2578.00000    0.13787
2578.50000    0.13709
2579.00000    0.13600
2579.50000    0.13461
2580.00000    0.13292
2580.50000    0.13092
2581.00000    0.12857
2581.50000    0.12581
2582.00000    0.12260
2582.50000    0.11886
2583.00000    0.11455
2583.50000    0.10961
2584.00000    0.10401
2584.50000    0.09772
2585.00000    0.09074
2585.50000    0.08308
2586.00000    0.07478
2586.50000    0.06587
2587.00000    0.05641
2587.50000    0.04645
2588.00000    0.03607
2588.50000    0.02533
2589.00000    0.01429
2589.50000    0.00302
2590.00000   -0.00843
2590.50000   -0.02000
2591.00000   -0.03163
2591.50000   -0.04326
2592.00000   -0.05483
2592.50000   -0.06625
2593.00000   -0.07745
2593.50000   -0.08832
2594.00000   -0.09876
2594.50000   -0.10864
2595.00000   -0.11782
2595.50000   -0.12618
2596.00000   -0.13358
2596.50000   -0.13989
2597.00000   -0.14501
2597.50000   -0.14885
2598.00000   -0.15136
2598.50000   -0.15254
2599.00000   -0.15239
2599.50000   -0.15101
2600.00000   -0.14849
2600.50000   -0.14499
2601.00000   -0.14068
2601.50000   -0.13577
2602.00000   -0.13048
2602.50000   -0.12501
2603.00000   -0.11958
2603.50000   -0.11436
2604.00000   -0.10950
2604.50000   -0.10510
2605.00000   -0.10122
2605.50000   -0.09787
2606.00000   -0.09501
2606.50000   -0.09256
2607.00000   -0.09040
2607.50000   -0.08838
2608.00000   -0.08636
2608.50000   -0.08419
2609.00000   -0.08171
2609.50000   -0.07881
2610.00000   -0.07541
2610.50000   -0.07145
2611.00000   -0.06695
2611.50000   -0.06193
2612.00000   -0.05648
2612.50000   -0.05072
2613.00000   -0.04477
2613.50000   -0.03879
2614.00000   -0.03293
2614.50000   -0.02730
2615.00000   -0.02203
2615.50000   -0.01718
2616.00000   -0.01278
2616.50000   -0.00881
2617.00000   -0.00521
2617.50000   -0.00186
2618.00000    0.00139
2618.50000    0.00471
2619.00000    0.00831
2619.50000    0.01240
2620.00000    0.01718
2620.50000    0.02285
2621.00000    0.02956
2621.50000    0.03745
2622.00000    0.04661
2622.50000    0.05709
2623.00000    0.06890
2623.50000    0.08202
2624.00000    0.09640
2624.50000    0.11194
2625.00000    0.12856
2625.50000    0.14615
2626.00000    0.16463
2626.50000    0.18392
2627.00000    0.20394
2627.50000    0.22465
2628.00000    0.24604
2628.50000    0.26813
2629.00000    0.29093
2629.50000    0.31451
2630.00000    0.33894
2630.50000    0.36429
2631.00000    0.39064
2631.50000    0.41808
2632.00000    0.44667
2632.50000    0.47646
2633.00000    0.50750
2633.50000    0.53981
2634.00000    0.57339
2634.50000    0.60822
2635.00000    0.64427
2635.50000    0.68149
2636.00000    0.71981
2636.50000    0.75917
2637.00000    0.79950
2637.50000    0.84074
2638.00000    0.88280
2638.50000    0.92565
2639.00000    0.96922
2639.50000    1.01349
2640.00000    1.05843
2640.50000    1.10403
2641.00000    1.15032
2641.50000    1.19731
2642.00000    1.24504
2642.50000    1.29358
2643.00000    1.34300
2643.50000    1.39338
2644.00000    1.44483
2644.50000    1.49745
2645.00000    1.55138
2645.50000    1.60674
2646.00000    1.66367
2646.50000    1.72231
2647.00000    1.78282
2647.50000    1.84535
2648.00000    1.91004
2648.50000    1.97706
2649.00000    2.04655
2649.50000    2.11867
2650.00000    2.19356
2650.50000    2.27138
2651.00000    2.35227
2651.50000    2.43637
2652.00000    2.52382
2652.50000    2.61475
2653.00000    2.70929
2653.50000    2.80754
2654.00000    2.90964
2654.50000    3.01566
2655.00000    3.12571
2655.50000    3.23985
2656.00000    3.35814
2656.50000    3.48063
2657.00000    3.60734
2657.50000    3.73829
2658.00000    3.87345
2658.50000    4.01281
2659.00000    4.15631
2659.50000    4.30389
2660.00000    4.45547
2660.50000    4.61095
2661.00000    4.77020
2661.50000    4.93308
2662.00000    5.09945
2662.50000    5.26911
2663.00000    5.44186
2663.50000    5.61748
2664.00000    5.79571
2664.50000    5.97627
2665.00000    6.15883
2665.50000    6.34306
2666.00000    6.52856
2666.50000    6.71491
2667.00000    6.90166
2667.50000    7.08833
2668.00000    7.27438
2668.50000    7.45927
2669.00000    7.64243
2669.50000    7.82324
2670.00000    8.00110
2670.50000    8.17537
2671.00000    8.34541
2671.50000    8.51057
2672.00000    8.67020
2672.50000    8.82367
2673.00000    8.97032
2673.50000    9.10954
2674.00000    9.24069
2674.50000    9.36320
2675.00000    9.47647
2675.50000    9.57994
2676.00000    9.67309
2676.50000    9.75542
2677.00000    9.82647
2677.50000    9.88583
2678.00000    9.93313
2678.50000    9.96808
2679.00000    9.99042
2679.50000   10.00000
2680.00000    9.99674
2680.50000    9.98063
2681.00000    9.95179
2681.50000    9.91042
2682.00000    9.85680
2682.50000    9.79136
2683.00000    9.71458
2683.50000    9.62706
2684.00000    9.52946
2684.50000    9.42255
2685.00000    9.30712
2685.50000    9.18402
2686.00000    9.05414
2686.50000    8.91834
2687.00000    8.77750
2687.50000    8.63245
2688.00000    8.48399
2688.50000    8.33284
2689.00000    8.17964
2689.50000    8.02495
2690.00000    7.86923
2690.50000    7.71286
2691.00000    7.55610
2691.50000    7.39915
2692.00000    7.24212
2692.50000    7.08506
2693.00000    6.92798
2693.50000    6.77085
2694.00000    6.61366
2694.50000    6.45637
2695.00000    6.29900
2695.50000    6.14158
2696.00000    5.98421
2696.50000    5.82704
2697.00000    5.67027
2697.50000    5.51416
2698.00000    5.35901
2698.50000    5.20517
2699.00000    5.05300
2699.50000    4.90287
2700.00000    4.75513
2700.50000    4.61011
2701.00000    4.46811
2701.50000    4.32935
2702.00000    4.19400
2702.50000    4.06217
2703.00000    3.93389
2703.50000    3.80911
2704.00000    3.68774
2704.50000    3.56965
2705.00000    3.45465
2705.50000    3.34257
2706.00000    3.23319
2706.50000    3.12636
2707.00000    3.02192
2707.50000    2.91977
2708.00000    2.81985
2708.50000    2.72216
2709.00000    2.62674
2709.50000    2.53370
2710.00000    2.44315
2710.50000    2.35528
2711.00000    2.27025
2711.50000    2.18822
2712.00000    2.10936
2712.50000    2.03377
2713.00000    1.96151
2713.50000    1.89259
2714.00000    1.82692
2714.50000    1.76437
2715.00000    1.70470
2715.50000    1.64761
2716.00000    1.59274
2716.50000    1.53966
2717.00000    1.48791
2717.50000    1.43700
2718.00000    1.38646
2718.50000    1.33580
2719.00000    1.28460
2719.50000    1.23246
2720.00000    1.17909
2720.50000    1.12425
2721.00000    1.06782
2721.50000    1.00975
2722.00000    0.95013
2722.50000    0.88911
2723.00000    0.82695
2723.50000    0.76399
2724.00000    0.70064
2724.50000    0.63734
2725.00000    0.57460
2725.50000    0.51290
2726.00000    0.45275
2726.50000    0.39463
2727.00000    0.33899
2727.50000    0.28623
2728.00000    0.23670
2728.50000    0.19070
2729.00000    0.14847
2729.50000    0.11018
2730.00000    0.07597
2730.50000    0.04591
2731.00000    0.02005
2731.50000   -0.00162
2732.00000   -0.01913
2732.50000   -0.03252
2733.00000   -0.04188
2733.50000   -0.04729
2734.00000   -0.04889
2734.50000   -0.04684
2735.00000   -0.04131
2735.50000   -0.03254
2736.00000   -0.02080
2736.50000   -0.00642
2737.00000    0.01024
2737.50000    0.02874
2738.00000    0.04863
2738.50000    0.06939
2739.00000    0.09048
2739.50000    0.11137
2740.00000    0.13150
2740.50000    0.15035
2741.00000    0.16744
2741.50000    0.18231
2742.00000    0.19461
2742.50000    0.20405
2743.00000    0.21043
2743.50000    0.21362
2744.00000    0.21361
2744.50000    0.21046
2745.00000    0.20431
2745.50000    0.19534
2746.00000    0.18381
2746.50000    0.17001
2747.00000    0.15422
2747.50000    0.13678
2748.00000    0.11797
2748.50000    0.09810
2749.00000    0.07744
2749.50000    0.05625
2750.00000    0.03477
2750.50000    0.01320
2751.00000   -0.00823
2751.50000   -0.02934
2752.00000   -0.04994
2752.50000   -0.06983
2753.00000   -0.08883
2753.50000   -0.10674
2754.00000   -0.12336
2754.50000   -0.13851
2755.00000   -0.15199
2755.50000   -0.16364
2756.00000   -0.17332
2756.50000   -0.18090
2757.00000   -0.18631
2757.50000   -0.18952
2758.00000   -0.19052
2758.50000   -0.18938
2759.00000   -0.18620
2759.50000   -0.18111
2760.00000   -0.17429
2760.50000   -0.16593
2761.00000   -0.15625
2761.50000   -0.14547
2762.00000   -0.13381
2762.50000   -0.12147
2763.00000   -0.10864
2763.50000   -0.09548
2764.00000   -0.08212
2764.50000   -0.06866
2765.00000   -0.05518
2765.50000   -0.04171
2766.00000   -0.02827
2766.50000   -0.01485
2767.00000   -0.00143
2767.50000    0.01204
2768.00000    0.02561
2768.50000    0.03933
2769.00000    0.05327
2769.50000    0.06747
2770.00000    0.08198
2770.50000    0.09682
2771.00000    0.11201
2771.50000    0.12753
2772.00000    0.14332
2772.50000    0.15932
2773.00000    0.17539
2773.50000    0.19138
2774.00000    0.20707
2774.50000    0.22223
2775.00000    0.23656
2775.50000    0.24974
2776.00000    0.26141
2776.50000    0.27122
2777.00000    0.27878
2777.50000    0.28374
2778.00000    0.28577
2778.50000    0.28456
2779.00000    0.27988
2779.50000    0.27157
2780.00000    0.25953
2780.50000    0.24377
2781.00000    0.22437
2781.50000    0.20154
2782.00000    0.17553
2782.50000    0.14671
2783.00000    0.11552
2783.50000    0.08243
2784.00000    0.04798
2784.50000    0.01273
2785.00000   -0.02276
2785.50000   -0.05791
2786.00000   -0.09218
2786.50000   -0.12505
2787.00000   -0.15603
2787.50000   -0.18468
2788.00000   -0.21062
2788.50000   -0.23349
2789.00000   -0.25301
2789.50000   -0.26893
2790.00000   -0.28106
2790.50000   -0.28925
2791.00000   -0.29340
2791.50000   -0.29344
2792.00000   -0.28937
2792.50000   -0.28120
2793.00000   -0.26901
2793.50000   -0.25290
2794.00000   -0.23303
2794.50000   -0.20959
2795.00000   -0.18283
2795.50000   -0.15301
2796.00000   -0.12045
2796.50000   -0.08550
2797.00000   -0.04853
2797.50000   -0.00994
2798.00000    0.02987
2798.50000    0.07045
2799.00000    0.11138
2799.50000    0.15222
2800.00000    0.19255
2800.50000    0.23195
2801.00000    0.27002
2801.50000    0.30638
2802.00000    0.34066
2802.50000    0.37255
2803.00000    0.40173
2803.50000    0.42794
2804.00000    0.45094
2804.50000    0.47055
2805.00000    0.48661
2805.50000    0.49901
2806.00000    0.50770
2806.50000    0.51266
2807.00000    0.51391
2807.50000    0.51153
2808.00000    0.50565
2808.50000    0.49640
2809.00000    0.48399
2809.50000    0.46864
2810.00000    0.45057
2810.50000    0.43005
2811.00000    0.40734
2811.50000    0.38270
2812.00000    0.35642
2812.50000    0.32876
2813.00000    0.29999
2813.50000    0.27036
2814.00000    0.24016
2814.50000    0.20964
2815.00000    0.17908
2815.50000    0.14877
2816.00000    0.11901
2816.50000    0.09012
2817.00000    0.06243
2817.50000    0.03629
2818.00000    0.01207
2818.50000   -0.00989
2819.00000   -0.02921
2819.50000   -0.04557
2820.00000   -0.05864
2820.50000   -0.06815
2821.00000   -0.07389
2821.50000   -0.07571
2822.00000   -0.07352
2822.50000   -0.06735
2823.00000   -0.05728
2823.50000   -0.04350
2824.00000   -0.02629
2824.50000   -0.00599
2825.00000    0.01698
2825.50000    0.04213
2826.00000    0.06896
2826.50000    0.09690
2827.00000    0.12541
2827.50000    0.15393
2828.00000    0.18195
2828.50000    0.20896
2829.00000    0.23452
2829.50000    0.25825
2830.00000    0.27983
2830.50000    0.29899
2831.00000    0.31556
2831.50000    0.32941
2832.00000    0.34050
2832.50000    0.34883
2833.00000    0.35447
2833.50000    0.35754
2834.00000    0.35819
2834.50000    0.35661
2835.00000    0.35302
2835.50000    0.34766
2836.00000    0.34076
2836.50000    0.33258
2837.00000    0.32336
2837.50000    0.31332
2838.00000    0.30268
2838.50000    0.29163
2839.00000    0.28032
2839.50000    0.26888
2840.00000    0.25740
2840.50000    0.24596
2841.00000    0.23457
2841.50000    0.22325
2842.00000    0.21196
2842.50000    0.20064
2843.00000    0.18924
2843.50000    0.17768
2844.00000    0.16587
2844.50000    0.15372
2845.00000    0.14117
2845.50000    0.12814
2846.00000    0.11459
2846.50000    0.10050
2847.00000    0.08587
2847.50000    0.07070
2848.00000    0.05505
2848.50000    0.03898
2849.00000    0.02258
2849.50000    0.00597
2850.00000   -0.01075
2850.50000   -0.02742
2851.00000   -0.04389
2851.50000   -0.06000
2852.00000   -0.07558
2852.50000   -0.09045
2853.00000   -0.10443
2853.50000   -0.11734
2854.00000   -0.12899
2854.50000   -0.13921
2855.00000   -0.14784
2855.50000   -0.15470
2856.00000   -0.15966
2856.50000   -0.16258
2857.00000   -0.16338
2857.50000   -0.16198
2858.00000   -0.15834
2858.50000   -0.15246
2859.00000   -0.14437
2859.50000   -0.13415
2860.00000   -0.12192
2860.50000   -0.10784
2861.00000   -0.09209
2861.50000   -0.07490
2862.00000   -0.05650
2862.50000   -0.03715
2863.00000   -0.01712
2863.50000    0.00333
2864.00000    0.02397
2864.50000    0.04455
2865.00000    0.06489
2865.50000    0.08480
2866.00000    0.10416
2866.50000    0.12287
2867.00000    0.14084
2867.50000    0.15804
2868.00000    0.17444
2868.50000    0.19004
2869.00000    0.20481
2869.50000    0.21877
2870.00000    0.23189
2870.50000    0.24414
2871.00000    0.25547
2871.50000    0.26580
2872.00000    0.27504
2872.50000    0.28307
2873.00000    0.28978
2873.50000    0.29503
2874.00000    0.29868
2874.50000    0.30062
2875.00000    0.30073
2875.50000    0.29894
2876.00000    0.29521
2876.50000    0.28951
2877.00000    0.28188
2877.50000    0.27239
2878.00000    0.26115
2878.50000    0.24830
2879.00000    0.23401
2879.50000    0.21847
2880.00000    0.20189
2880.50000    0.18448
2881.00000    0.16644
2881.50000    0.14799
2882.00000    0.12932
2882.50000    0.11061
2883.00000    0.09202
2883.50000    0.07371
2884.00000    0.05582
2884.50000    0.03846
2885.00000    0.02177
2885.50000    0.00585
2886.00000   -0.00919
2886.50000   -0.02323
2887.00000   -0.03619
2887.50000   -0.04796
2888.00000   -0.05847
2888.50000   -0.06763
2889.00000   -0.07539
2889.50000   -0.08171
2890.00000   -0.08657
2890.50000   -0.08998
2891.00000   -0.09195
2891.50000   -0.09254
2892.00000   -0.09181
2892.50000   -0.08985
2893.00000   -0.08675
2893.50000   -0.08262
2894.00000   -0.07754
2894.50000   -0.07164
2895.00000   -0.06500
2895.50000   -0.05773
2896.00000   -0.04989
2896.50000   -0.04159
2897.00000   -0.03290
2897.50000   -0.02388
2898.00000   -0.01463
2898.50000   -0.00522
2899.00000    0.00429
2899.50000    0.01384
