1200.50000   -0.16003
1201.00000   -0.12374
1201.50000   -0.08749
1202.00000   -0.05134
1202.50000   -0.01535
1203.00000    0.02039
1203.50000    0.05579
1204.00000    0.09073
1204.50000    0.12509
1205.00000    0.15874
1205.50000    0.19155
1206.00000    0.22337
1206.50000    0.25409
1207.00000    0.28358
1207.50000    0.31176
1208.00000    0.33852
1208.50000    0.36384
1209.00000    0.38768
1209.50000    0.41004
1210.00000    0.43097
1210.50000    0.45054
1211.00000    0.46883
1211.50000    0.48597
1212.00000    0.50210
1212.50000    0.51736
1213.00000    0.53189
1213.50000    0.54583
1214.00000    0.55932
1214.50000    0.57243
1215.00000    0.58526
1215.50000    0.59781
1216.00000    0.61009
1216.50000    0.62204
1217.00000    0.63357
1217.50000    0.64453
1218.00000    0.65476
1218.50000    0.66403
1219.00000    0.67211
1219.50000    0.67875
1220.00000    0.68368
1220.50000    0.68662
1221.00000    0.68732
1221.50000    0.68554
1222.00000    0.68104
1222.50000    0.67364
1223.00000    0.66316
1223.50000    0.64949
1224.00000    0.63254
1224.50000    0.61226
1225.00000    0.58864
1225.50000    0.56172
1226.00000    0.53157
1226.50000    0.49830
1227.00000    0.46206
1227.50000    0.42301
1228.00000    0.38138
1228.50000    0.33740
1229.00000    0.29135
1229.50000    0.24352
1230.00000    0.19424
1230.50000    0.14387
1231.00000    0.09278
1231.50000    0.04139
1232.00000   -0.00987
1232.50000   -0.06055
1233.00000   -0.11020
1233.50000   -0.15832
1234.00000   -0.20445
1234.50000   -0.24810
1235.00000   -0.28881
1235.50000   -0.32614
1236.00000   -0.35969
1236.50000   -0.38910
1237.00000   -0.41406
1237.50000   -0.43432
1238.00000   -0.44970
1238.50000   -0.46011
1239.00000   -0.46553
1239.50000   -0.46600
1240.00000   -0.46168
1240.50000   -0.45278
1241.00000   -0.43959
1241.50000   -0.42246
1242.00000   -0.40180
1242.50000   -0.37807
1243.00000   -0.35175
1243.50000   -0.32334
1244.00000   -0.29335
1244.50000   -0.26228
1245.00000   -0.23061
1245.50000   -0.19877
1246.00000   -0.16718
1246.50000   -0.13618
1247.00000   -0.10609
1247.50000   -0.07716
1248.00000   -0.04956
1248.50000   -0.02346
1249.00000    0.00107
1249.50000    0.02397
1250.00000    0.04523
1250.50000    0.06488
1251.00000    0.08296
1251.50000    0.09954
1252.00000    0.11467
1252.50000    0.12845
1253.00000    0.14092
1253.50000    0.15215
1254.00000    0.16220
1254.50000    0.17111
1255.00000    0.17890
1255.50000    0.18560
1256.00000    0.19122
1256.50000    0.19577
1257.00000    0.19926
1257.50000    0.20171
1258.00000    0.20313
1258.50000    0.20355
1259.00000    0.20299
1259.50000    0.20152
1260.00000    0.19917
1260.50000    0.19603
1261.00000    0.19216
1261.50000    0.18765
1262.00000    0.18259
1262.50000    0.17704
1263.00000    0.17110
1263.50000    0.16483
1264.00000    0.15829
1264.50000    0.15153
1265.00000    0.14458
1265.50000    0.13748
1266.00000    0.13022
1266.50000    0.12283
1267.00000    0.11528
1267.50000    0.10758
1268.00000    0.09973
1268.50000    0.09171
1269.00000    0.08356
1269.50000    0.07530
1270.00000    0.06696
1270.50000    0.05863
1271.00000    0.05037
1271.50000    0.04229
1272.00000    0.03451
1272.50000    0.02715
1273.00000    0.02035
1273.50000    0.01424
1274.00000    0.00895
1274.50000    0.00459
1275.00000    0.00125
1275.50000   -0.00099
1276.00000   -0.00210
1276.50000   -0.00209
1277.00000   -0.00099
1277.50000    0.00111
1278.00000    0.00409
1278.50000    0.00780
1279.00000    0.01205
1279.50000    0.01664
1280.00000    0.02133
1280.50000    0.02590
1281.00000    0.03012
1281.50000    0.03379
1282.00000    0.03672
1282.50000    0.03874
1283.00000    0.03974
1283.50000    0.03964
1284.00000    0.03842
1284.50000    0.03610
1285.00000    0.03275
1285.50000    0.02849
1286.00000    0.02348
1286.50000    0.01793
1287.00000    0.01206
1287.50000    0.00612
1288.00000    0.00037
1288.50000   -0.00492
1289.00000   -0.00951
1289.50000   -0.01316
1290.00000   -0.01565
1290.50000   -0.01682
1291.00000   -0.01653
1291.50000   -0.01467
1292.00000   -0.01121
1292.50000   -0.00614
1293.00000    0.00047
1293.50000    0.00854
1294.00000    0.01789
1294.50000    0.02834
1295.00000    0.03964
1295.50000    0.05152
1296.00000    0.06368
1296.50000    0.07578
1297.00000    0.08749
1297.50000    0.09843
1298.00000    0.10828
1298.50000    0.11666
1299.00000    0.12327
1299.50000    0.12779
1300.00000    0.12996
1300.50000    0.12953
1301.00000    0.12634
1301.50000    0.12026
1302.00000    0.11122
1302.50000    0.09922
1303.00000    0.08434
1303.50000    0.06671
1304.00000    0.04654
1304.50000    0.02410
1305.00000   -0.00028
1305.50000   -0.02622
1306.00000   -0.05329
1306.50000   -0.08104
1307.00000   -0.10898
1307.50000   -0.13664
1308.00000   -0.16352
1308.50000   -0.18915
1309.00000   -0.21310
1309.50000   -0.23497
1310.00000   -0.25439
1310.50000   -0.27109
1311.00000   -0.28482
1311.50000   -0.29543
1312.00000   -0.30283
1312.50000   -0.30701
1313.00000   -0.30800
1313.50000   -0.30592
1314.00000   -0.30094
1314.50000   -0.29325
1315.00000   -0.28312
1315.50000   -0.27081
1316.00000   -0.25660
1316.50000   -0.24079
1317.00000   -0.22366
1317.50000   -0.20549
1318.00000   -0.18653
1318.50000   -0.16701
1319.00000   -0.14712
1319.50000   -0.12701
1320.00000   -0.10681
1320.50000   -0.08658
1321.00000   -0.06638
1321.50000   -0.04619
1322.00000   -0.02598
1322.50000   -0.00569
1323.00000    0.01479
1323.50000    0.03558
1324.00000    0.05682
1324.50000    0.07870
1325.00000    0.10138
1325.50000    0.12508
1326.00000    0.15001
1326.50000    0.17638
1327.00000    0.20442
1327.50000    0.23436
1328.00000    0.26643
1328.50000    0.30085
1329.00000    0.33783
1329.50000    0.37758
1330.00000    0.42027
1330.50000    0.46607
1331.00000    0.51509
1331.50000    0.56742
1332.00000    0.62311
1332.50000    0.68216
1333.00000    0.74450
1333.50000    0.81001
1334.00000    0.87851
1334.50000    0.94973
1335.00000    1.02335
1335.50000    1.09898
1336.00000    1.17613
1336.50000    1.25429
1337.00000    1.33285
1337.50000    1.41118
1338.00000    1.48859
1338.50000    1.56437
1339.00000    1.63779
1339.50000    1.70812
1340.00000    1.77465
1340.50000    1.83670
1341.00000    1.89363
1341.50000    1.94488
1342.00000    1.98994
1342.50000    2.02840
1343.00000    2.05993
1343.50000    2.08433
1344.00000    2.10147
1344.50000    2.11135
1345.00000    2.11406
1345.50000    2.10979
1346.00000    2.09882
1346.50000    2.08152
1347.00000    2.05833
1347.50000    2.02971
1348.00000    1.99620
1348.50000    1.95833
1349.00000    1.91664
1349.50000    1.87166
1350.00000    1.82391
1350.50000    1.77384
1351.00000    1.72189
1351.50000    1.66843
1352.00000    1.61377
1352.50000    1.55820
1353.00000    1.50191
1353.50000    1.44508
1354.00000    1.38783
1354.50000    1.33026
1355.00000    1.27243
1355.50000    1.21442
1356.00000    1.15627
1356.50000    1.09807
1357.00000    1.03988
1357.50000    0.98183
1358.00000    0.92404
1358.50000    0.86668
1359.00000    0.80994
1359.50000    0.75404
1360.00000    0.69921
1360.50000    0.64571
1361.00000    0.59380
1361.50000    0.54373
1362.00000    0.49577
1362.50000    0.45012
1363.00000    0.40702
1363.50000    0.36662
1364.00000    0.32907
1364.50000    0.29447
1365.00000    0.26286
1365.50000    0.23425
1366.00000    0.20862
1366.50000    0.18590
1367.00000    0.16597
1367.50000    0.14873
1368.00000    0.13401
1368.50000    0.12165
1369.00000    0.11148
1369.50000    0.10332
1370.00000    0.09698
1370.50000    0.09228
1371.00000    0.08901
1371.50000    0.08701
1372.00000    0.08608
1372.50000    0.08604
1373.00000    0.08668
1373.50000    0.08782
1374.00000    0.08924
1374.50000    0.09075
1375.00000    0.09214
1375.50000    0.09319
1376.00000    0.09369
1376.50000    0.09344
1377.00000    0.09225
1377.50000    0.08996
1378.00000    0.08643
1378.50000    0.08156
1379.00000    0.07529
1379.50000    0.06758
1380.00000    0.05848
1380.50000    0.04807
1381.00000    0.03647
1381.50000    0.02385
1382.00000    0.01043
1382.50000   -0.00355
1383.00000   -0.01784
1383.50000   -0.03215
1384.00000   -0.04623
1384.50000   -0.05982
1385.00000   -0.07269
1385.50000   -0.08465
1386.00000   -0.09558
1386.50000   -0.10538
1387.00000   -0.11402
1387.50000   -0.12152
1388.00000   -0.12795
1388.50000   -0.13341
1389.00000   -0.13806
1389.50000   -0.14206
1390.00000   -0.14559
1390.50000   -0.14882
1391.00000   -0.15190
1391.50000   -0.15497
1392.00000   -0.15809
1392.50000   -0.16132
1393.00000   -0.16461
1393.50000   -0.16790
1394.00000   -0.17105
1394.50000   -0.17389
1395.00000   -0.17617
1395.50000   -0.17767
1396.00000   -0.17810
1396.50000   -0.17721
1397.00000   -0.17475
1397.50000   -0.17049
1398.00000   -0.16425
1398.50000   -0.15590
1399.00000   -0.14539
1399.50000   -0.13270
1400.00000   -0.11790
1400.50000   -0.10114
1401.00000   -0.08260
1401.50000   -0.06256
1402.00000   -0.04130
1402.50000   -0.01918
1403.00000    0.00345
1403.50000    0.02621
1404.00000    0.04873
1404.50000    0.07066
1405.00000    0.09166
1405.50000    0.11143
1406.00000    0.12970
1406.50000    0.14624
1407.00000    0.16087
1407.50000    0.17345
1408.00000    0.18385
1408.50000    0.19202
1409.00000    0.19791
1409.50000    0.20151
1410.00000    0.20283
1410.50000    0.20191
1411.00000    0.19879
1411.50000    0.19354
1412.00000    0.18627
1412.50000    0.17707
1413.00000    0.16609
1413.50000    0.15347
1414.00000    0.13939
1414.50000    0.12407
1415.00000    0.10773
1415.50000    0.09063
1416.00000    0.07306
1416.50000    0.05530
1417.00000    0.03768
1417.50000    0.02051
1418.00000    0.00411
1418.50000   -0.01123
1419.00000   -0.02523
1419.50000   -0.03764
1420.00000   -0.04826
1420.50000   -0.05693
1421.00000   -0.06358
1421.50000   -0.06815
1422.00000   -0.07069
1422.50000   -0.07129
1423.00000   -0.07010
1423.50000   -0.06732
1424.00000   -0.06321
1424.50000   -0.05804
1425.00000   -0.05211
1425.50000   -0.04574
1426.00000   -0.03923
1426.50000   -0.03289
1427.00000   -0.02699
1427.50000   -0.02178
1428.00000   -0.01747
1428.50000   -0.01422
1429.00000   -0.01218
1429.50000   -0.01143
1430.00000   -0.01202
1430.50000   -0.01396
1431.00000   -0.01723
1431.50000   -0.02181
1432.00000   -0.02762
1432.50000   -0.03460
1433.00000   -0.04267
1433.50000   -0.05172
1434.00000   -0.06168
1434.50000   -0.07242
1435.00000   -0.08386
1435.50000   -0.09585
1436.00000   -0.10828
1436.50000   -0.12099
1437.00000   -0.13381
1437.50000   -0.14655
1438.00000   -0.15901
1438.50000   -0.17093
1439.00000   -0.18208
1439.50000   -0.19217
1440.00000   -0.20092
1440.50000   -0.20805
1441.00000   -0.21328
1441.50000   -0.21635
1442.00000   -0.21703
1442.50000   -0.21515
1443.00000   -0.21055
1443.50000   -0.20318
1444.00000   -0.19302
1444.50000   -0.18013
1445.00000   -0.16466
1445.50000   -0.14679
1446.00000   -0.12681
1446.50000   -0.10504
1447.00000   -0.08184
1447.50000   -0.05761
1448.00000   -0.03280
1448.50000   -0.00781
1449.00000    0.01692
1449.50000    0.04100
1450.00000    0.06406
1450.50000    0.08578
1451.00000    0.10591
1451.50000    0.12422
1452.00000    0.14058
1452.50000    0.15487
1453.00000    0.16707
1453.50000    0.17717
1454.00000    0.18521
1454.50000    0.19125
1455.00000    0.19538
1455.50000    0.19770
1456.00000    0.19831
1456.50000    0.19731
1457.00000    0.19479
1457.50000    0.19084
1458.00000    0.18554
1458.50000    0.17895
1459.00000    0.17116
1459.50000    0.16222
1460.00000    0.15222
1460.50000    0.14126
1461.00000    0.12943
1461.50000    0.11688
1462.00000    0.10377
1462.50000    0.09026
1463.00000    0.07658
1463.50000    0.06295
1464.00000    0.04959
1464.50000    0.03676
1465.00000    0.02471
1465.50000    0.01365
1466.00000    0.00380
1466.50000   -0.00467
1467.00000   -0.01161
1467.50000   -0.01692
1468.00000   -0.02057
1468.50000   -0.02256
1469.00000   -0.02294
1469.50000   -0.02184
1470.00000   -0.01941
1470.50000   -0.01586
1471.00000   -0.01143
1471.50000   -0.00637
1472.00000   -0.00097
1472.50000    0.00448
1473.00000    0.00972
1473.50000    0.01446
1474.00000    0.01848
1474.50000    0.02154
1475.00000    0.02348
1475.50000    0.02413
1476.00000    0.02341
1476.50000    0.02124
1477.00000    0.01760
1477.50000    0.01252
1478.00000    0.00607
1478.50000   -0.00167
1479.00000   -0.01053
1479.50000   -0.02036
1480.00000   -0.03095
1480.50000   -0.04205
1481.00000   -0.05341
1481.50000   -0.06476
1482.00000   -0.07580
1482.50000   -0.08623
1483.00000   -0.09575
1483.50000   -0.10406
1484.00000   -0.11090
1484.50000   -0.11600
1485.00000   -0.11914
1485.50000   -0.12016
1486.00000   -0.11891
1486.50000   -0.11534
1487.00000   -0.10942
1487.50000   -0.10122
1488.00000   -0.09086
1488.50000   -0.07854
1489.00000   -0.06450
1489.50000   -0.04907
1490.00000   -0.03260
1490.50000   -0.01549
1491.00000    0.00185
1491.50000    0.01897
1492.00000    0.03546
1492.50000    0.05092
1493.00000    0.06498
1493.50000    0.07733
1494.00000    0.08770
1494.50000    0.09591
1495.00000    0.10183
1495.50000    0.10541
1496.00000    0.10667
1496.50000    0.10571
1497.00000    0.10266
1497.50000    0.09773
1498.00000    0.09114
1498.50000    0.08316
1499.00000    0.07407
1499.50000    0.06415
1500.00000    0.05366
1500.50000    0.04286
1501.00000    0.03198
1501.50000    0.02119
1502.00000    0.01066
1502.50000    0.00051
1503.00000   -0.00918
1503.50000   -0.01837
1504.00000   -0.02702
1504.50000   -0.03514
1505.00000   -0.04274
1505.50000   -0.04985
1506.00000   -0.05649
1506.50000   -0.06269
1507.00000   -0.06846
1507.50000   -0.07381
1508.00000   -0.07875
1508.50000   -0.08325
1509.00000   -0.08730
1509.50000   -0.09085
1510.00000   -0.09387
1510.50000   -0.09631
1511.00000   -0.09813
1511.50000   -0.09927
1512.00000   -0.09972
1512.50000   -0.09943
1513.00000   -0.09841
1513.50000   -0.09665
1514.00000   -0.09417
1514.50000   -0.09101
1515.00000   -0.08722
1515.50000   -0.08287
1516.00000   -0.07802
1516.50000   -0.07278
1517.00000   -0.06723
1517.50000   -0.06149
1518.00000   -0.05565
1518.50000   -0.04982
1519.00000   -0.04410
1519.50000   -0.03859
1520.00000   -0.03337
1520.50000   -0.02852
1521.00000   -0.02409
1521.50000   -0.02011
1522.00000   -0.01663
1522.50000   -0.01362
1523.00000   -0.01108
1523.50000   -0.00895
1524.00000   -0.00718
1524.50000   -0.00568
1525.00000   -0.00434
1525.50000   -0.00306
1526.00000   -0.00171
1526.50000   -0.00016
1527.00000    0.00172
1527.50000    0.00406
1528.00000    0.00696
1528.50000    0.01052
1529.00000    0.01481
1529.50000    0.01989
1530.00000    0.02575
1530.50000    0.03239
1531.00000    0.03976
1531.50000    0.04775
1532.00000    0.05625
1532.50000    0.06510
1533.00000    0.07414
1533.50000    0.08316
1534.00000    0.09196
1534.50000    0.10034
1535.00000    0.10809
1535.50000    0.11502
1536.00000    0.12099
1536.50000    0.12584
1537.00000    0.12949
1537.50000    0.13187
1538.00000    0.13296
1538.50000    0.13277
1539.00000    0.13138
1539.50000    0.12885
1540.00000    0.12531
1540.50000    0.12089
1541.00000    0.11574
1541.50000    0.11002
1542.00000    0.10387
1542.50000    0.09742
1543.00000    0.09079
1543.50000    0.08405
1544.00000    0.07728
1544.50000    0.07047
1545.00000    0.06363
1545.50000    0.05671
1546.00000    0.04963
1546.50000    0.04231
1547.00000    0.03463
1547.50000    0.02650
1548.00000    0.01780
1548.50000    0.00844
1549.00000   -0.00164
1549.50000   -0.01251
1550.00000   -0.02416
1550.50000   -0.03657
1551.00000   -0.04968
1551.50000   -0.06339
1552.00000   -0.07756
1552.50000   -0.09202
1553.00000   -0.10657
1553.50000   -0.12098
1554.00000   -0.13502
1554.50000   -0.14845
1555.00000   -0.16103
1555.50000   -0.17253
1556.00000   -0.18272
1556.50000   -0.19141
1557.00000   -0.19841
1557.50000   -0.20357
1558.00000   -0.20675
1558.50000   -0.20781
1559.00000   -0.20666
1559.50000   -0.20319
1560.00000   -0.19733
1560.50000   -0.18899
1561.00000   -0.17809
1561.50000   -0.16454
1562.00000   -0.14825
1562.50000   -0.12912
1563.00000   -0.10706
1563.50000   -0.08197
1564.00000   -0.05374
1564.50000   -0.02228
1565.00000    0.01251
1565.50000    0.05069
1566.00000    0.09233
1566.50000    0.13746
1567.00000    0.18609
1567.50000    0.23822
1568.00000    0.29378
1568.50000    0.35274
1569.00000    0.41499
1569.50000    0.48043
1570.00000    0.54896
1570.50000    0.62044
1571.00000    0.69475
1571.50000    0.77178
1572.00000    0.85143
1572.50000    0.93360
1573.00000    1.01821
1573.50000    1.10523
1574.00000    1.19462
1574.50000    1.28637
1575.00000    1.38050
1575.50000    1.47702
1576.00000    1.57598
1576.50000    1.67740
1577.00000    1.78133
1577.50000    1.88776
1578.00000    1.99670
1578.50000    2.10812
1579.00000    2.22193
1579.50000    2.33802
1580.00000    2.45623
1580.50000    2.57631
1581.00000    2.69799
1581.50000    2.82090
1582.00000    2.94461
1582.50000    3.06864
1583.00000    3.19239
1583.50000    3.31522
1584.00000    3.43642
1584.50000    3.55517
1585.00000    3.67064
1585.50000    3.78188
1586.00000    3.88794
1586.50000    3.98779
1587.00000    4.08040
1587.50000    4.16470
1588.00000    4.23963
1588.50000    4.30417
1589.00000    4.35732
1589.50000    4.39815
1590.00000    4.42583
1590.50000    4.43963
1591.00000    4.43895
1591.50000    4.42335
1592.00000    4.39255
1592.50000    4.34646
1593.00000    4.28519
1593.50000    4.20904
1594.00000    4.11851
1594.50000    4.01430
1595.00000    3.89730
1595.50000    3.76857
1596.00000    3.62933
1596.50000    3.48094
1597.00000    3.32484
1597.50000    3.16257
1598.00000    2.99570
1598.50000    2.82585
1599.00000    2.65457
1599.50000    2.48339
1600.00000    2.31377
1600.50000    2.14705
1601.00000    1.98444
1601.50000    1.82702
1602.00000    1.67572
1602.50000    1.53130
1603.00000    1.39436
1603.50000    1.26533
1604.00000    1.14450
1604.50000    1.03199
1605.00000    0.92782
1605.50000    0.83187
1606.00000    0.74392
1606.50000    0.66367
1607.00000    0.59077
1607.50000    0.52479
1608.00000    0.46531
1608.50000    0.41185
1609.00000    0.36397
1609.50000    0.32122
1610.00000    0.28315
1610.50000    0.24937
1611.00000    0.21949
1611.50000    0.19316
1612.00000    0.17006
1612.50000    0.14989
1613.00000    0.13239
1613.50000    0.11731
1614.00000    0.10439
1614.50000    0.09343
1615.00000    0.08419
1615.50000    0.07645
1616.00000    0.07000
1616.50000    0.06460
1617.00000    0.06004
1617.50000    0.05610
1618.00000    0.05254
1618.50000    0.04915
1619.00000    0.04572
1619.50000    0.04208
1620.00000    0.03805
1620.50000    0.03350
1621.00000    0.02832
1621.50000    0.02248
1622.00000    0.01594
1622.50000    0.00874
1623.00000    0.00098
1623.50000   -0.00722
1624.00000   -0.01568
1624.50000   -0.02417
1625.00000   -0.03244
1625.50000   -0.04020
1626.00000   -0.04716
1626.50000   -0.05300
1627.00000   -0.05741
1627.50000   -0.06012
1628.00000   -0.06084
1628.50000   -0.05936
1629.00000   -0.05548
1629.50000   -0.04908
1630.00000   -0.04009
1630.50000   -0.02851
1631.00000   -0.01441
1631.50000    0.00209
1632.00000    0.02076
1632.50000    0.04134
1633.00000    0.06347
1633.50000    0.08676
1634.00000    0.11075
1634.50000    0.13497
1635.00000    0.15890
1635.50000    0.18199
1636.00000    0.20371
1636.50000    0.22354
1637.00000    0.24096
1637.50000    0.25552
1638.00000    0.26677
1638.50000    0.27435
1639.00000    0.27797
1639.50000    0.27740
1640.00000    0.27248
1640.50000    0.26315
1641.00000    0.24945
1641.50000    0.23147
1642.00000    0.20941
1642.50000    0.18354
1643.00000    0.15422
1643.50000    0.12184
1644.00000    0.08689
1644.50000    0.04987
1645.00000    0.01134
1645.50000   -0.02814
1646.00000   -0.06798
1646.50000   -0.10760
1647.00000   -0.14643
1647.50000   -0.18395
1648.00000   -0.21963
1648.50000   -0.25302
1649.00000   -0.28370
1649.50000   -0.31132
1650.00000   -0.33558
1650.50000   -0.35623
1651.00000   -0.37310
1651.50000   -0.38607
1652.00000   -0.39507
1652.50000   -0.40010
1653.00000   -0.40120
1653.50000   -0.39846
1654.00000   -0.39200
1654.50000   -0.38198
1655.00000   -0.36859
1655.50000   -0.35204
1656.00000   -0.33254
1656.50000   -0.31032
1657.00000   -0.28562
1657.50000   -0.25868
1658.00000   -0.22971
1658.50000   -0.19893
1659.00000   -0.16656
1659.50000   -0.13278
1660.00000   -0.09779
1660.50000   -0.06176
1661.00000   -0.02485
1661.50000    0.01277
1662.00000    0.05093
1662.50000    0.08949
1663.00000    0.12826
1663.50000    0.16706
1664.00000    0.20571
1664.50000    0.24399
1665.00000    0.28166
1665.50000    0.31848
1666.00000    0.35418
1666.50000    0.38847
1667.00000    0.42104
1667.50000    0.45159
1668.00000    0.47979
1668.50000    0.50533
1669.00000    0.52790
1669.50000    0.54723
1670.00000    0.56304
1670.50000    0.57511
1671.00000    0.58326
1671.50000    0.58734
1672.00000    0.58727
1672.50000    0.58302
1673.00000    0.57462
1673.50000    0.56214
1674.00000    0.54573
1674.50000    0.52557
1675.00000    0.50192
1675.50000    0.47503
1676.00000    0.44524
1676.50000    0.41287
1677.00000    0.37830
1677.50000    0.34189
1678.00000    0.30404
1678.50000    0.26512
1679.00000    0.22552
1679.50000    0.18560
1680.00000    0.14572
1680.50000    0.10622
1681.00000    0.06743
1681.50000    0.02964
1682.00000   -0.00686
1682.50000   -0.04181
1683.00000   -0.07498
1683.50000   -0.10614
1684.00000   -0.13510
1684.50000   -0.16170
1685.00000   -0.18578
1685.50000   -0.20723
1686.00000   -0.22594
1686.50000   -0.24186
1687.00000   -0.25494
1687.50000   -0.26517
1688.00000   -0.27258
1688.50000   -0.27719
1689.00000   -0.27911
1689.50000   -0.27842
1690.00000   -0.27527
1690.50000   -0.26979
1691.00000   -0.26218
1691.50000   -0.25261
1692.00000   -0.24130
1692.50000   -0.22845
1693.00000   -0.21429
1693.50000   -0.19903
1694.00000   -0.18289
1694.50000   -0.16607
1695.00000   -0.14877
1695.50000   -0.13119
1696.00000   -0.11351
1696.50000   -0.09588
1697.00000   -0.07846
1697.50000   -0.06139
1698.00000   -0.04480
1698.50000   -0.02882
1699.00000   -0.01357
1699.50000    0.00086
1700.00000    0.01435
1700.50000    0.02680
1701.00000    0.03812
1701.50000    0.04823
1702.00000    0.05706
1702.50000    0.06455
1703.00000    0.07066
1703.50000    0.07538
1704.00000    0.07872
1704.50000    0.08073
1705.00000    0.08148
1705.50000    0.08109
1706.00000    0.07970
1706.50000    0.07751
1707.00000    0.07473
1707.50000    0.07160
1708.00000    0.06839
1708.50000    0.06535
1709.00000    0.06276
1709.50000    0.06089
1710.00000    0.05994
1710.50000    0.06013
1711.00000    0.06161
1711.50000    0.06445
1712.00000    0.06870
1712.50000    0.07433
1713.00000    0.08124
1713.50000    0.08927
1714.00000    0.09821
1714.50000    0.10782
1715.00000    0.11781
1715.50000    0.12788
1716.00000    0.13773
1716.50000    0.14706
1717.00000    0.15562
1717.50000    0.16319
1718.00000    0.16959
1718.50000    0.17470
1719.00000    0.17848
1719.50000    0.18093
1720.00000    0.18210
1720.50000    0.18212
1721.00000    0.18112
1721.50000    0.17928
1722.00000    0.17678
1722.50000    0.17380
1723.00000    0.17048
1723.50000    0.16695
1724.00000    0.16329
1724.50000    0.15950
1725.00000    0.15558
1725.50000    0.15142
1726.00000    0.14690
1726.50000    0.14186
1727.00000    0.13611
1727.50000    0.12948
1728.00000    0.12177
1728.50000    0.11286
1729.00000    0.10263
1729.50000    0.09107
1730.00000    0.07820
1730.50000    0.06414
1731.00000    0.04907
1731.50000    0.03327
1732.00000    0.01707
1732.50000    0.00085
1733.00000   -0.01498
1733.50000   -0.02997
1734.00000   -0.04370
1734.50000   -0.05579
1735.00000   -0.06590
1735.50000   -0.07377
1736.00000   -0.07924
1736.50000   -0.08225
1737.00000   -0.08287
1737.50000   -0.08126
1738.00000   -0.07773
1738.50000   -0.07265
1739.00000   -0.06649
1739.50000   -0.05981
1740.00000   -0.05316
1740.50000   -0.04713
1741.00000   -0.04228
1741.50000   -0.03912
1742.00000   -0.03811
1742.50000   -0.03961
1743.00000   -0.04385
1743.50000   -0.05097
1744.00000   -0.06098
1744.50000   -0.07374
1745.00000   -0.08901
1745.50000   -0.10642
1746.00000   -0.12551
1746.50000   -0.14574
1747.00000   -0.16650
1747.50000   -0.18717
1748.00000   -0.20708
1748.50000   -0.22560
1749.00000   -0.24212
1749.50000   -0.25608
1750.00000   -0.26699
1750.50000   -0.27447
1751.00000   -0.27819
1751.50000   -0.27796
1752.00000   -0.27368
1752.50000   -0.26535
1753.00000   -0.25306
1753.50000   -0.23700
1754.00000   -0.21745
1754.50000   -0.19472
1755.00000   -0.16923
1755.50000   -0.14140
1756.00000   -0.11171
1756.50000   -0.08063
1757.00000   -0.04868
1757.50000   -0.01635
1758.00000    0.01588
1758.50000    0.04753
1759.00000    0.07817
1759.50000    0.10737
1760.00000    0.13475
1760.50000    0.15997
1761.00000    0.18272
1761.50000    0.20275
1762.00000    0.21983
1762.50000    0.23380
1763.00000    0.24454
1763.50000    0.25196
1764.00000    0.25606
1764.50000    0.25686
1765.00000    0.25443
1765.50000    0.24890
1766.00000    0.24044
1766.50000    0.22929
1767.00000    0.21569
1767.50000    0.19996
1768.00000    0.18243
1768.50000    0.16345
1769.00000    0.14341
1769.50000    0.12270
1770.00000    0.10169
1770.50000    0.08078
1771.00000    0.06032
1771.50000    0.04066
1772.00000    0.02211
1772.50000    0.00493
1773.00000   -0.01066
1773.50000   -0.02446
1774.00000   -0.03636
1774.50000   -0.04626
1775.00000   -0.05413
1775.50000   -0.05998
1776.00000   -0.06384
1776.50000   -0.06579
1777.00000   -0.06591
1777.50000   -0.06432
1778.00000   -0.06114
1778.50000   -0.05647
1779.00000   -0.05044
1779.50000   -0.04315
1780.00000   -0.03470
1780.50000   -0.02516
1781.00000   -0.01462
1781.50000   -0.00314
1782.00000    0.00920
1782.50000    0.02235
1783.00000    0.03621
1783.50000    0.05068
1784.00000    0.06562
1784.50000    0.08088
1785.00000    0.09625
1785.50000    0.11151
1786.00000    0.12638
1786.50000    0.14055
1787.00000    0.15369
1787.50000    0.16545
1788.00000    0.17545
1788.50000    0.18335
1789.00000    0.18879
1789.50000    0.19145
1790.00000    0.19106
1790.50000    0.18740
1791.00000    0.18031
1791.50000    0.16973
1792.00000    0.15567
1792.50000    0.13821
1793.00000    0.11754
1793.50000    0.09395
1794.00000    0.06776
1794.50000    0.03941
1795.00000    0.00936
1795.50000   -0.02185
1796.00000   -0.05370
1796.50000   -0.08562
1797.00000   -0.11707
1797.50000   -0.14752
1798.00000   -0.17646
1798.50000   -0.20347
1799.00000   -0.22814
1799.50000   -0.25014
1800.00000   -0.26922
1800.50000   -0.28518
1801.00000   -0.29790
1801.50000   -0.30730
1802.00000   -0.31340
1802.50000   -0.31623
1803.00000   -0.31591
1803.50000   -0.31256
1804.00000   -0.30636
1804.50000   -0.29752
1805.00000   -0.28625
1805.50000   -0.27279
1806.00000   -0.25739
1806.50000   -0.24029
1807.00000   -0.22176
1807.50000   -0.20205
1808.00000   -0.18141
1808.50000   -0.16011
1809.00000   -0.13839
1809.50000   -0.11649
1810.00000   -0.09466
1810.50000   -0.07312
1811.00000   -0.05209
1811.50000   -0.03177
1812.00000   -0.01236
1812.50000    0.00597
1813.00000    0.02308
1813.50000    0.03884
1814.00000    0.05314
1814.50000    0.06591
1815.00000    0.07710
1815.50000    0.08668
1816.00000    0.09466
1816.50000    0.10107
1817.00000    0.10596
1817.50000    0.10940
1818.00000    0.11149
1818.50000    0.11232
1819.00000    0.11200
1819.50000    0.11067
1820.00000    0.10843
1820.50000    0.10542
1821.00000    0.10174
1821.50000    0.09750
1822.00000    0.09282
1822.50000    0.08778
1823.00000    0.08247
1823.50000    0.07695
1824.00000    0.07130
1824.50000    0.06556
1825.00000    0.05981
1825.50000    0.05409
1826.00000    0.04846
1826.50000    0.04300
1827.00000    0.03778
1827.50000    0.03290
1828.00000    0.02848
1828.50000    0.02466
1829.00000    0.02160
1829.50000    0.01948
1830.00000    0.01853
1830.50000    0.01897
1831.00000    0.02106
1831.50000    0.02506
1832.00000    0.03124
1832.50000    0.03986
1833.00000    0.05118
1833.50000    0.06543
1834.00000    0.08280
1834.50000    0.10344
1835.00000    0.12745
1835.50000    0.15487
1836.00000    0.18567
1836.50000    0.21973
1837.00000    0.25687
1837.50000    0.29683
1838.00000    0.33927
1838.50000    0.38377
1839.00000    0.42987
1839.50000    0.47703
1840.00000    0.52468
1840.50000    0.57223
1841.00000    0.61907
1841.50000    0.66457
1842.00000    0.70814
1842.50000    0.74921
1843.00000    0.78723
1843.50000    0.82171
1844.00000    0.85220
1844.50000    0.87832
1845.00000    0.89973
1845.50000    0.91616
1846.00000    0.92739
1846.50000    0.93324
1847.00000    0.93361
1847.50000    0.92841
1848.00000    0.91762
1848.50000    0.90124
1849.00000    0.87931
1849.50000    0.85194
1850.00000    0.81924
1850.50000    0.78138
1851.00000    0.73857
1851.50000    0.69109
1852.00000    0.63925
1852.50000    0.58344
1853.00000    0.52411
1853.50000    0.46175
1854.00000    0.39695
1854.50000    0.33034
1855.00000    0.26261
1855.50000    0.19449
1856.00000    0.12676
1856.50000    0.06021
1857.00000   -0.00437
1857.50000   -0.06621
1858.00000   -0.12456
1858.50000   -0.17874
1859.00000   -0.22816
1859.50000   -0.27230
1860.00000   -0.31075
1860.50000   -0.34322
1861.00000   -0.36956
1861.50000   -0.38971
1862.00000   -0.40378
1862.50000   -0.41195
1863.00000   -0.41453
1863.50000   -0.41190
1864.00000   -0.40452
1864.50000   -0.39290
1865.00000   -0.37758
1865.50000   -0.35910
1866.00000   -0.33800
1866.50000   -0.31477
1867.00000   -0.28990
1867.50000   -0.26380
1868.00000   -0.23682
1868.50000   -0.20926
1869.00000   -0.18138
1869.50000   -0.15335
1870.00000   -0.12533
1870.50000   -0.09742
1871.00000   -0.06973
1871.50000   -0.04235
1872.00000   -0.01535
1872.50000    0.01115
1873.00000    0.03703
1873.50000    0.06213
1874.00000    0.08628
1874.50000    0.10926
1875.00000    0.13085
1875.50000    0.15083
1876.00000    0.16896
1876.50000    0.18503
1877.00000    0.19887
1877.50000    0.21033
1878.00000    0.21935
1878.50000    0.22592
1879.00000    0.23009
1879.50000    0.23201
1880.00000    0.23187
1880.50000    0.22996
1881.00000    0.22659
1881.50000    0.22212
1882.00000    0.21694
1882.50000    0.21142
1883.00000    0.20591
1883.50000    0.20075
1884.00000    0.19619
1884.50000    0.19243
1885.00000    0.18955
1885.50000    0.18759
1886.00000    0.18644
1886.50000    0.18595
1887.00000    0.18586
1887.50000    0.18583
1888.00000    0.18550
1888.50000    0.18445
1889.00000    0.18227
1889.50000    0.17854
1890.00000    0.17290
1890.50000    0.16502
1891.00000    0.15467
1891.50000    0.14169
1892.00000    0.12603
1892.50000    0.10774
1893.00000    0.08696
1893.50000    0.06395
1894.00000    0.03902
1894.50000    0.01257
1895.00000   -0.01494
1895.50000   -0.04303
1896.00000   -0.07120
1896.50000   -0.09897
1897.00000   -0.12587
1897.50000   -0.15147
1898.00000   -0.17539
1898.50000   -0.19733
1899.00000   -0.21703
1899.50000   -0.23433
1900.00000   -0.24911
1900.50000   -0.26134
1901.00000   -0.27102
1901.50000   -0.27823
1902.00000   -0.28304
1902.50000   -0.28559
1903.00000   -0.28598
1903.50000   -0.28436
1904.00000   -0.28083
1904.50000   -0.27548
1905.00000   -0.26839
1905.50000   -0.25960
1906.00000   -0.24911
1906.50000   -0.23693
1907.00000   -0.22302
1907.50000   -0.20736
1908.00000   -0.18989
1908.50000   -0.17059
1909.00000   -0.14947
1909.50000   -0.12656
1910.00000   -0.10192
1910.50000   -0.07568
1911.00000   -0.04805
1911.50000   -0.01925
1912.00000    0.01040
1912.50000    0.04054
1913.00000    0.07075
1913.50000    0.10060
1914.00000    0.12962
1914.50000    0.15732
1915.00000    0.18326
1915.50000    0.20699
1916.00000    0.22813
1916.50000    0.24637
1917.00000    0.26146
1917.50000    0.27324
1918.00000    0.28166
1918.50000    0.28675
1919.00000    0.28865
1919.50000    0.28758
1920.00000    0.28384
1920.50000    0.27780
1921.00000    0.26986
1921.50000    0.26047
1922.00000    0.25007
1922.50000    0.23909
1923.00000    0.22793
1923.50000    0.21693
1924.00000    0.20638
1924.50000    0.19650
1925.00000    0.18741
1925.50000    0.17918
1926.00000    0.17180
1926.50000    0.16518
1927.00000    0.15920
1927.50000    0.15370
1928.00000    0.14850
1928.50000    0.14341
1929.00000    0.13828
1929.50000    0.13294
1930.00000    0.12732
1930.50000    0.12136
1931.00000    0.11505
1931.50000    0.10844
1932.00000    0.10162
1932.50000    0.09471
1933.00000    0.08786
1933.50000    0.08122
1934.00000    0.07496
1934.50000    0.06919
1935.00000    0.06405
1935.50000    0.05959
1936.00000    0.05585
1936.50000    0.05281
1937.00000    0.05040
1937.50000    0.04851
1938.00000    0.04698
1938.50000    0.04565
1939.00000    0.04430
1939.50000    0.04275
1940.00000    0.04079
1940.50000    0.03823
1941.00000    0.03494
1941.50000    0.03078
1942.00000    0.02568
1942.50000    0.01960
1943.00000    0.01253
1943.50000    0.00451
1944.00000   -0.00439
1944.50000   -0.01410
1945.00000   -0.02451
1945.50000   -0.03552
1946.00000   -0.04703
1946.50000   -0.05897
1947.00000   -0.07127
1947.50000   -0.08387
1948.00000   -0.09675
1948.50000   -0.10991
1949.00000   -0.12335
1949.50000   -0.13708
1950.00000   -0.15114
1950.50000   -0.16551
1951.00000   -0.18021
1951.50000   -0.19519
1952.00000   -0.21040
1952.50000   -0.22576
1953.00000   -0.24113
1953.50000   -0.25637
1954.00000   -0.27128
1954.50000   -0.28564
1955.00000   -0.29922
1955.50000   -0.31176
1956.00000   -0.32300
1956.50000   -0.33268
1957.00000   -0.34057
1957.50000   -0.34642
1958.00000   -0.35004
1958.50000   -0.35126
1959.00000   -0.34995
1959.50000   -0.34603
1960.00000   -0.33943
1960.50000   -0.33016
1961.00000   -0.31826
1961.50000   -0.30381
1962.00000   -0.28694
1962.50000   -0.26781
1963.00000   -0.24663
1963.50000   -0.22364
1964.00000   -0.19910
1964.50000   -0.17333
1965.00000   -0.14666
1965.50000   -0.11943
1966.00000   -0.09203
1966.50000   -0.06485
1967.00000   -0.03828
1967.50000   -0.01273
1968.00000    0.01141
1968.50000    0.03374
1969.00000    0.05392
1969.50000    0.07162
1970.00000    0.08655
1970.50000    0.09850
1971.00000    0.10729
1971.50000    0.11283
1972.00000    0.11511
1972.50000    0.11419
1973.00000    0.11021
1973.50000    0.10339
1974.00000    0.09404
1974.50000    0.08251
1975.00000    0.06923
1975.50000    0.05467
1976.00000    0.03931
1976.50000    0.02370
1977.00000    0.00833
1977.50000   -0.00629
1978.00000   -0.01968
1978.50000   -0.03141
1979.00000   -0.04110
1979.50000   -0.04844
1980.00000   -0.05318
1980.50000   -0.05517
1981.00000   -0.05430
1981.50000   -0.05057
1982.00000   -0.04404
1982.50000   -0.03483
1983.00000   -0.02312
1983.50000   -0.00914
1984.00000    0.00682
1984.50000    0.02449
1985.00000    0.04353
1985.50000    0.06362
1986.00000    0.08445
1986.50000    0.10567
1987.00000    0.12700
1987.50000    0.14814
1988.00000    0.16882
1988.50000    0.18879
1989.00000    0.20781
1989.50000    0.22565
1990.00000    0.24211
1990.50000    0.25700
1991.00000    0.27011
1991.50000    0.28128
1992.00000    0.29031
1992.50000    0.29703
1993.00000    0.30129
1993.50000    0.30295
1994.00000    0.30186
1994.50000    0.29795
1995.00000    0.29114
1995.50000    0.28143
1996.00000    0.26886
1996.50000    0.25354
1997.00000    0.23563
1997.50000    0.21540
1998.00000    0.19318
1998.50000    0.16938
1999.00000    0.14448
1999.50000    0.11904
2000.00000    0.09364
2000.50000    0.06895
2001.00000    0.04562
2001.50000    0.02431
2002.00000    0.00566
2002.50000   -0.00975
2003.00000   -0.02139
2003.50000   -0.02887
2004.00000   -0.03189
2004.50000   -0.03029
2005.00000   -0.02408
2005.50000   -0.01341
2006.00000    0.00138
2006.50000    0.01981
2007.00000    0.04124
2007.50000    0.06488
2008.00000    0.08985
2008.50000    0.11517
2009.00000    0.13981
2009.50000    0.16272
2010.00000    0.18287
2010.50000    0.19930
2011.00000    0.21112
2011.50000    0.21759
2012.00000    0.21810
2012.50000    0.21222
2013.00000    0.19973
2013.50000    0.18060
2014.00000    0.15501
2014.50000    0.12332
2015.00000    0.08610
2015.50000    0.04408
2016.00000   -0.00189
2016.50000   -0.05080
2017.00000   -0.10161
2017.50000   -0.15318
2018.00000   -0.20439
2018.50000   -0.25411
2019.00000   -0.30128
2019.50000   -0.34491
2020.00000   -0.38410
2020.50000   -0.41810
2021.00000   -0.44627
2021.50000   -0.46812
2022.00000   -0.48335
2022.50000   -0.49177
2023.00000   -0.49337
2023.50000   -0.48827
2024.00000   -0.47675
2024.50000   -0.45917
2025.00000   -0.43601
2025.50000   -0.40784
2026.00000   -0.37529
2026.50000   -0.33900
2027.00000   -0.29968
2027.50000   -0.25801
2028.00000   -0.21466
2028.50000   -0.17026
2029.00000   -0.12542
2029.50000   -0.08064
2030.00000   -0.03640
2030.50000    0.00692
2031.00000    0.04903
2031.50000    0.08970
2032.00000    0.12878
2032.50000    0.16621
2033.00000    0.20198
2033.50000    0.23611
2034.00000    0.26869
2034.50000    0.29983
2035.00000    0.32962
2035.50000    0.35817
2036.00000    0.38557
2036.50000    0.41186
2037.00000    0.43708
2037.50000    0.46118
2038.00000    0.48410
2038.50000    0.50572
2039.00000    0.52590
2039.50000    0.54443
2040.00000    0.56113
2040.50000    0.57578
2041.00000    0.58817
2041.50000    0.59811
2042.00000    0.60545
2042.50000    0.61008
2043.00000    0.61192
2043.50000    0.61097
2044.00000    0.60726
2044.50000    0.60088
2045.00000    0.59198
2045.50000    0.58071
2046.00000    0.56726
2046.50000    0.55184
2047.00000    0.53463
2047.50000    0.51581
2048.00000    0.49552
2048.50000    0.47384
2049.00000    0.45085
2049.50000    0.42654
2050.00000    0.40090
2050.50000    0.37385
2051.00000    0.34532
2051.50000    0.31523
2052.00000    0.28350
2052.50000    0.25011
2053.00000    0.21508
2053.50000    0.17851
2054.00000    0.14059
2054.50000    0.10159
2055.00000    0.06189
2055.50000    0.02199
2056.00000   -0.01755
2056.50000   -0.05608
2057.00000   -0.09289
2057.50000   -0.12723
2058.00000   -0.15836
2058.50000   -0.18555
2059.00000   -0.20814
2059.50000   -0.22553
2060.00000   -0.23724
2060.50000   -0.24290
2061.00000   -0.24228
2061.50000   -0.23532
2062.00000   -0.22207
2062.50000   -0.20275
2063.00000   -0.17769
2063.50000   -0.14737
2064.00000   -0.11233
2064.50000   -0.07323
2065.00000   -0.03076
2065.50000    0.01435
2066.00000    0.06136
2066.50000    0.10954
2067.00000    0.15817
2067.50000    0.20657
2068.00000    0.25413
2068.50000    0.30027
2069.00000    0.34448
2069.50000    0.38630
2070.00000    0.42535
2070.50000    0.46127
2071.00000    0.49379
2071.50000    0.52267
2072.00000    0.54770
2072.50000    0.56872
2073.00000    0.58562
2073.50000    0.59830
2074.00000    0.60671
2074.50000    0.61081
2075.00000    0.61061
2075.50000    0.60614
2076.00000    0.59748
2076.50000    0.58471
2077.00000    0.56798
2077.50000    0.54745
2078.00000    0.52336
2078.50000    0.49594
2079.00000    0.46548
2079.50000    0.43231
2080.00000    0.39679
2080.50000    0.35934
2081.00000    0.32037
2081.50000    0.28034
2082.00000    0.23975
2082.50000    0.19909
2083.00000    0.15887
2083.50000    0.11961
2084.00000    0.08182
2084.50000    0.04599
2085.00000    0.01259
2085.50000   -0.01795
2086.00000   -0.04524
2086.50000   -0.06897
2087.00000   -0.08887
2087.50000   -0.10477
2088.00000   -0.11656
2088.50000   -0.12423
2089.00000   -0.12785
2089.50000   -0.12758
2090.00000   -0.12365
2090.50000   -0.11637
2091.00000   -0.10612
2091.50000   -0.09330
2092.00000   -0.07837
2092.50000   -0.06181
2093.00000   -0.04409
2093.50000   -0.02567
2094.00000   -0.00701
2094.50000    0.01149
2095.00000    0.02947
2095.50000    0.04661
2096.00000    0.06266
2096.50000    0.07742
2097.00000    0.09073
2097.50000    0.10249
2098.00000    0.11265
2098.50000    0.12119
2099.00000    0.12811
2099.50000    0.13344
2100.00000    0.13722
2100.50000    0.13949
2101.00000    0.14030
2101.50000    0.13968
2102.00000    0.13769
2102.50000    0.13436
2103.00000    0.12971
2103.50000    0.12379
2104.00000    0.11662
2104.50000    0.10825
2105.00000    0.09871
2105.50000    0.08807
2106.00000    0.07639
2106.50000    0.06375
2107.00000    0.05022
2107.50000    0.03589
2108.00000    0.02085
2108.50000    0.00519
2109.00000   -0.01103
2109.50000   -0.02774
2110.00000   -0.04489
2110.50000   -0.06247
2111.00000   -0.08046
2111.50000   -0.09889
2112.00000   -0.11778
2112.50000   -0.13717
2113.00000   -0.15710
2113.50000   -0.17762
2114.00000   -0.19875
2114.50000   -0.22048
2115.00000   -0.24279
2115.50000   -0.26559
2116.00000   -0.28875
2116.50000   -0.31209
2117.00000   -0.33537
2117.50000   -0.35829
2118.00000   -0.38051
2118.50000   -0.40164
2119.00000   -0.42126
2119.50000   -0.43894
2120.00000   -0.45423
2120.50000   -0.46671
2121.00000   -0.47598
2121.50000   -0.48169
2122.00000   -0.48354
2122.50000   -0.48132
2123.00000   -0.47490
2123.50000   -0.46424
2124.00000   -0.44937
2124.50000   -0.43044
2125.00000   -0.40769
2125.50000   -0.38142
2126.00000   -0.35202
2126.50000   -0.31991
2127.00000   -0.28559
2127.50000   -0.24955
2128.00000   -0.21233
2128.50000   -0.17442
2129.00000   -0.13635
2129.50000   -0.09856
2130.00000   -0.06151
2130.50000   -0.02558
2131.00000    0.00889
2131.50000    0.04162
2132.00000    0.07237
2132.50000    0.10095
2133.00000    0.12722
2133.50000    0.15109
2134.00000    0.17250
2134.50000    0.19144
2135.00000    0.20792
2135.50000    0.22197
2136.00000    0.23365
2136.50000    0.24307
2137.00000    0.25032
2137.50000    0.25553
2138.00000    0.25886
2138.50000    0.26047
2139.00000    0.26055
2139.50000    0.25931
2140.00000    0.25695
2140.50000    0.25371
2141.00000    0.24982
2141.50000    0.24550
2142.00000    0.24099
2142.50000    0.23651
2143.00000    0.23225
2143.50000    0.22841
2144.00000    0.22513
2144.50000    0.22254
2145.00000    0.22074
2145.50000    0.21981
2146.00000    0.21977
2146.50000    0.22064
2147.00000    0.22241
2147.50000    0.22503
2148.00000    0.22846
2148.50000    0.23264
2149.00000    0.23747
2149.50000    0.24289
2150.00000    0.24879
2150.50000    0.25510
2151.00000    0.26171
2151.50000    0.26851
2152.00000    0.27540
2152.50000    0.28227
2153.00000    0.28898
2153.50000    0.29540
2154.00000    0.30140
2154.50000    0.30682
2155.00000    0.31152
2155.50000    0.31533
2156.00000    0.31811
2156.50000    0.31974
2157.00000    0.32010
2157.50000    0.31910
2158.00000    0.31669
2158.50000    0.31286
2159.00000    0.30765
2159.50000    0.30114
2160.00000    0.29345
2160.50000    0.28474
2161.00000    0.27522
2161.50000    0.26512
2162.00000    0.25468
2162.50000    0.24415
2163.00000    0.23376
2163.50000    0.22372
2164.00000    0.21421
2164.50000    0.20533
2165.00000    0.19713
2165.50000    0.18960
2166.00000    0.18265
2166.50000    0.17610
2167.00000    0.16973
2167.50000    0.16323
2168.00000    0.15627
2168.50000    0.14848
2169.00000    0.13947
2169.50000    0.12888
2170.00000    0.11636
2170.50000    0.10161
2171.00000    0.08441
2171.50000    0.06462
2172.00000    0.04218
2172.50000    0.01716
2173.00000   -0.01030
2173.50000   -0.03993
2174.00000   -0.07139
2174.50000   -0.10425
2175.00000   -0.13802
2175.50000   -0.17218
2176.00000   -0.20616
2176.50000   -0.23943
2177.00000   -0.27146
2177.50000   -0.30178
2178.00000   -0.32998
2178.50000   -0.35574
2179.00000   -0.37881
2179.50000   -0.39904
2180.00000   -0.41639
2180.50000   -0.43089
2181.00000   -0.44266
2181.50000   -0.45185
2182.00000   -0.45871
2182.50000   -0.46346
2183.00000   -0.46638
2183.50000   -0.46770
2184.00000   -0.46764
2184.50000   -0.46637
2185.00000   -0.46403
2185.50000   -0.46069
2186.00000   -0.45635
2186.50000   -0.45097
2187.00000   -0.44446
2187.50000   -0.43669
2188.00000   -0.42748
2188.50000   -0.41668
2189.00000   -0.40410
2189.50000   -0.38959
2190.00000   -0.37303
2190.50000   -0.35432
2191.00000   -0.33343
2191.50000   -0.31038
2192.00000   -0.28525
2192.50000   -0.25817
2193.00000   -0.22935
2193.50000   -0.19902
2194.00000   -0.16748
2194.50000   -0.13507
2195.00000   -0.10212
2195.50000   -0.06903
2196.00000   -0.03618
2196.50000   -0.00394
2197.00000    0.02729
2197.50000    0.05715
2198.00000    0.08531
2198.50000    0.11143
2199.00000    0.13523
2199.50000    0.15646
2200.00000    0.17490
2200.50000    0.19038
2201.00000    0.20277
2201.50000    0.21199
2202.00000    0.21801
2202.50000    0.22088
2203.00000    0.22066
2203.50000    0.21751
2204.00000    0.21161
2204.50000    0.20320
2205.00000    0.19258
2205.50000    0.18007
2206.00000    0.16603
2206.50000    0.15083
2207.00000    0.13485
2207.50000    0.11847
2208.00000    0.10205
2208.50000    0.08592
2209.00000    0.07039
2209.50000    0.05570
2210.00000    0.04207
2210.50000    0.02963
2211.00000    0.01848
2211.50000    0.00867
2212.00000    0.00019
2212.50000   -0.00702
2213.00000   -0.01303
2213.50000   -0.01796
2214.00000   -0.02195
2214.50000   -0.02515
2215.00000   -0.02772
2215.50000   -0.02982
2216.00000   -0.03162
2216.50000   -0.03326
2217.00000   -0.03490
2217.50000   -0.03669
2218.00000   -0.03877
2218.50000   -0.04127
2219.00000   -0.04431
2219.50000   -0.04801
2220.00000   -0.05244
2220.50000   -0.05769
2221.00000   -0.06378
2221.50000   -0.07072
2222.00000   -0.07846
2222.50000   -0.08690
2223.00000   -0.09590
2223.50000   -0.10524
2224.00000   -0.11464
2224.50000   -0.12379
2225.00000   -0.13231
2225.50000   -0.13978
2226.00000   -0.14579
2226.50000   -0.14990
2227.00000   -0.15171
2227.50000   -0.15086
2228.00000   -0.14703
2228.50000   -0.14000
2229.00000   -0.12966
2229.50000   -0.11599
2230.00000   -0.09908
2230.50000   -0.07915
2231.00000   -0.05653
2231.50000   -0.03163
2232.00000   -0.00496
2232.50000    0.02294
2233.00000    0.05148
2233.50000    0.08006
2234.00000    0.10813
2234.50000    0.13517
2235.00000    0.16073
2235.50000    0.18446
2236.00000    0.20609
2236.50000    0.22547
2237.00000    0.24255
2237.50000    0.25738
2238.00000    0.27007
2238.50000    0.28081
2239.00000    0.28985
2239.50000    0.29743
2240.00000    0.30379
2240.50000    0.30917
2241.00000    0.31374
2241.50000    0.31762
2242.00000    0.32087
2242.50000    0.32347
2243.00000    0.32532
2243.50000    0.32627
2244.00000    0.32612
2244.50000    0.32460
2245.00000    0.32147
2245.50000    0.31643
2246.00000    0.30925
2246.50000    0.29971
2247.00000    0.28763
2247.50000    0.27292
2248.00000    0.25556
2248.50000    0.23559
2249.00000    0.21315
2249.50000    0.18845
2250.00000    0.16174
2250.50000    0.13338
2251.00000    0.10373
2251.50000    0.07320
2252.00000    0.04222
2252.50000    0.01121
2253.00000   -0.01941
2253.50000   -0.04924
2254.00000   -0.07792
2254.50000   -0.10512
2255.00000   -0.13053
2255.50000   -0.15392
2256.00000   -0.17506
2256.50000   -0.19379
2257.00000   -0.20996
2257.50000   -0.22345
2258.00000   -0.23417
2258.50000   -0.24206
2259.00000   -0.24705
2259.50000   -0.24910
2260.00000   -0.24819
2260.50000   -0.24429
2261.00000   -0.23742
2261.50000   -0.22759
2262.00000   -0.21486
2262.50000   -0.19931
2263.00000   -0.18107
2263.50000   -0.16032
2264.00000   -0.13727
2264.50000   -0.11222
2265.00000   -0.08552
2265.50000   -0.05756
2266.00000   -0.02883
2266.50000    0.00016
2267.00000    0.02884
2267.50000    0.05662
2268.00000    0.08286
2268.50000    0.10695
2269.00000    0.12829
2269.50000    0.14629
2270.00000    0.16046
2270.50000    0.17036
2271.00000    0.17564
2271.50000    0.17609
2272.00000    0.17160
2272.50000    0.16222
2273.00000    0.14812
2273.50000    0.12961
2274.00000    0.10713
2274.50000    0.08127
2275.00000    0.05268
2275.50000    0.02212
2276.00000   -0.00961
2276.50000   -0.04166
2277.00000   -0.07320
2277.50000   -0.10342
2278.00000   -0.13157
2278.50000   -0.15699
2279.00000   -0.17912
2279.50000   -0.19751
2280.00000   -0.21187
2280.50000   -0.22203
2281.00000   -0.22797
2281.50000   -0.22981
2282.00000   -0.22778
2282.50000   -0.22224
2283.00000   -0.21362
2283.50000   -0.20242
2284.00000   -0.18920
2284.50000   -0.17452
2285.00000   -0.15896
2285.50000   -0.14307
2286.00000   -0.12735
2286.50000   -0.11226
2287.00000   -0.09820
2287.50000   -0.08549
2288.00000   -0.07440
2288.50000   -0.06511
2289.00000   -0.05775
2289.50000   -0.05237
2290.00000   -0.04899
2290.50000   -0.04757
2291.00000   -0.04804
2291.50000   -0.05029
2292.00000   -0.05419
2292.50000   -0.05960
2293.00000   -0.06634
2293.50000   -0.07423
2294.00000   -0.08308
2294.50000   -0.09265
2295.00000   -0.10273
2295.50000   -0.11306
2296.00000   -0.12337
2296.50000   -0.13340
2297.00000   -0.14285
2297.50000   -0.15144
2298.00000   -0.15887
2298.50000   -0.16487
2299.00000   -0.16917
2299.50000   -0.17155
2300.00000   -0.17180
2300.50000   -0.16978
2301.00000   -0.16538
2301.50000   -0.15855
2302.00000   -0.14933
2302.50000   -0.13777
2303.00000   -0.12402
2303.50000   -0.10826
2304.00000   -0.09073
2304.50000   -0.07170
2305.00000   -0.05147
2305.50000   -0.03038
2306.00000   -0.00874
2306.50000    0.01311
2307.00000    0.03486
2307.50000    0.05620
2308.00000    0.07686
2308.50000    0.09658
2309.00000    0.11515
2309.50000    0.13237
2310.00000    0.14809
2310.50000    0.16215
2311.00000    0.17445
2311.50000    0.18490
2312.00000    0.19341
2312.50000    0.19993
2313.00000    0.20442
2313.50000    0.20685
2314.00000    0.20721
2314.50000    0.20550
2315.00000    0.20175
2315.50000    0.19602
2316.00000    0.18840
2316.50000    0.17899
2317.00000    0.16793
2317.50000    0.15542
2318.00000    0.14165
2318.50000    0.12687
2319.00000    0.11133
2319.50000    0.09531
2320.00000    0.07910
2320.50000    0.06299
2321.00000    0.04726
2321.50000    0.03218
2322.00000    0.01800
2322.50000    0.00491
2323.00000   -0.00689
2323.50000   -0.01729
2324.00000   -0.02620
2324.50000   -0.03356
2325.00000   -0.03938
2325.50000   -0.04368
2326.00000   -0.04655
2326.50000   -0.04805
2327.00000   -0.04831
2327.50000   -0.04744
2328.00000   -0.04554
2328.50000   -0.04274
2329.00000   -0.03912
2329.50000   -0.03475
2330.00000   -0.02968
2330.50000   -0.02395
2331.00000   -0.01753
2331.50000   -0.01042
2332.00000   -0.00255
2332.50000    0.00614
2333.00000    0.01574
2333.50000    0.02632
2334.00000    0.03798
2334.50000    0.05078
2335.00000    0.06478
2335.50000    0.08003
2336.00000    0.09650
2336.50000    0.11418
2337.00000    0.13297
2337.50000    0.15274
2338.00000    0.17332
2338.50000    0.19448
2339.00000    0.21593
2339.50000    0.23735
2340.00000    0.25838
2340.50000    0.27862
2341.00000    0.29766
2341.50000    0.31507
2342.00000    0.33042
2342.50000    0.34330
2343.00000    0.35333
2343.50000    0.36017
2344.00000    0.36354
2344.50000    0.36322
2345.00000    0.35909
2345.50000    0.35109
2346.00000    0.33925
2346.50000    0.32371
2347.00000    0.30468
2347.50000    0.28247
2348.00000    0.25745
2348.50000    0.23004
2349.00000    0.20075
2349.50000    0.17009
2350.00000    0.13859
2350.50000    0.10679
2351.00000    0.07521
2351.50000    0.04432
2352.00000    0.01456
2352.50000   -0.01369
2353.00000   -0.04012
2353.50000   -0.06450
2354.00000   -0.08667
2354.50000   -0.10656
2355.00000   -0.12416
2355.50000   -0.13955
2356.00000   -0.15287
2356.50000   -0.16430
2357.00000   -0.17409
2357.50000   -0.18250
2358.00000   -0.18982
2358.50000   -0.19636
2359.00000   -0.20241
2359.50000   -0.20825
2360.00000   -0.21414
2360.50000   -0.22030
2361.00000   -0.22690
2361.50000   -0.23405
2362.00000   -0.24181
2362.50000   -0.25020
2363.00000   -0.25914
2363.50000   -0.26853
2364.00000   -0.27819
2364.50000   -0.28790
2365.00000   -0.29743
2365.50000   -0.30650
2366.00000   -0.31482
2366.50000   -0.32212
2367.00000   -0.32813
2367.50000   -0.33263
2368.00000   -0.33541
2368.50000   -0.33634
2369.00000   -0.33531
2369.50000   -0.33228
2370.00000   -0.32725
2370.50000   -0.32028
2371.00000   -0.31146
2371.50000   -0.30089
2372.00000   -0.28870
2372.50000   -0.27500
2373.00000   -0.25991
2373.50000   -0.24350
2374.00000   -0.22583
2374.50000   -0.20691
2375.00000   -0.18674
2375.50000   -0.16526
2376.00000   -0.14242
2376.50000   -0.11815
2377.00000   -0.09239
2377.50000   -0.06512
2378.00000   -0.03635
2378.50000   -0.00618
2379.00000    0.02526
2379.50000    0.05773
2380.00000    0.09091
2380.50000    0.12439
2381.00000    0.15771
2381.50000    0.19033
2382.00000    0.22168
2382.50000    0.25115
2383.00000    0.27817
2383.50000    0.30218
2384.00000    0.32268
2384.50000    0.33923
2385.00000    0.35149
2385.50000    0.35923
2386.00000    0.36231
2386.50000    0.36069
2387.00000    0.35444
2387.50000    0.34372
2388.00000    0.32874
2388.50000    0.30978
2389.00000    0.28716
2389.50000    0.26121
2390.00000    0.23228
2390.50000    0.20073
2391.00000    0.16689
2391.50000    0.13112
2392.00000    0.09376
2392.50000    0.05516
2393.00000    0.01570
2393.50000   -0.02421
2394.00000   -0.06412
2394.50000   -0.10354
2395.00000   -0.14192
2395.50000   -0.17864
2396.00000   -0.21307
2396.50000   -0.24451
2397.00000   -0.27227
2397.50000   -0.29567
2398.00000   -0.31405
2398.50000   -0.32682
2399.00000   -0.33349
2399.50000   -0.33370
2400.00000   -0.32723
2400.50000   -0.31402
2401.00000   -0.29420
2401.50000   -0.26808
2402.00000   -0.23616
2402.50000   -0.19910
2403.00000   -0.15772
2403.50000   -0.11294
2404.00000   -0.06580
2404.50000   -0.01739
2405.00000    0.03118
2405.50000    0.07883
2406.00000    0.12450
2406.50000    0.16725
2407.00000    0.20624
2407.50000    0.24074
2408.00000    0.27020
2408.50000    0.29420
2409.00000    0.31251
2409.50000    0.32504
2410.00000    0.33184
2410.50000    0.33312
2411.00000    0.32919
2411.50000    0.32046
2412.00000    0.30743
2412.50000    0.29064
2413.00000    0.27068
2413.50000    0.24814
2414.00000    0.22363
2414.50000    0.19769
2415.00000    0.17088
2415.50000    0.14366
2416.00000    0.11647
2416.50000    0.08966
2417.00000    0.06350
2417.50000    0.03822
2418.00000    0.01394
2418.50000   -0.00925
2419.00000   -0.03135
2419.50000   -0.05241
2420.00000   -0.07253
2420.50000   -0.09183
2421.00000   -0.11046
2421.50000   -0.12860
2422.00000   -0.14640
2422.50000   -0.16401
2423.00000   -0.18155
2423.50000   -0.19912
2424.00000   -0.21674
2424.50000   -0.23441
2425.00000   -0.25203
2425.50000   -0.26948
2426.00000   -0.28655
2426.50000   -0.30296
2427.00000   -0.31839
2427.50000   -0.33247
2428.00000   -0.34477
2428.50000   -0.35486
2429.00000   -0.36229
2429.50000   -0.36659
2430.00000   -0.36737
2430.50000   -0.36423
2431.00000   -0.35687
2431.50000   -0.34504
2432.00000   -0.32863
2432.50000   -0.30759
2433.00000   -0.28203
2433.50000   -0.25216
2434.00000   -0.21835
2434.50000   -0.18106
2435.00000   -0.14089
2435.50000   -0.09851
2436.00000   -0.05471
2436.50000   -0.01031
2437.00000    0.03383
2437.50000    0.07685
2438.00000    0.11791
2438.50000    0.15622
2439.00000    0.19109
2439.50000    0.22191
2440.00000    0.24822
2440.50000    0.26968
2441.00000    0.28611
2441.50000    0.29745
2442.00000    0.30382
2442.50000    0.30545
2443.00000    0.30269
2443.50000    0.29600
2444.00000    0.28592
2444.50000    0.27302
2445.00000    0.25791
2445.50000    0.24121
2446.00000    0.22349
2446.50000    0.20532
2447.00000    0.18718
2447.50000    0.16949
2448.00000    0.15259
2448.50000    0.13675
2449.00000    0.12215
2449.50000    0.10888
2450.00000    0.09698
2450.50000    0.08640
2451.00000    0.07708
2451.50000    0.06888
2452.00000    0.06166
2452.50000    0.05525
2453.00000    0.04949
2453.50000    0.04422
2454.00000    0.03929
2454.50000    0.03458
2455.00000    0.02998
2455.50000    0.02545
2456.00000    0.02093
2456.50000    0.01643
2457.00000    0.01198
2457.50000    0.00761
2458.00000    0.00340
2458.50000   -0.00056
2459.00000   -0.00419
2459.50000   -0.00739
2460.00000   -0.01006
2460.50000   -0.01214
2461.00000   -0.01356
2461.50000   -0.01428
2462.00000   -0.01428
2462.50000   -0.01359
2463.00000   -0.01223
2463.50000   -0.01029
2464.00000   -0.00783
2464.50000   -0.00498
2465.00000   -0.00186
2465.50000    0.00142
2466.00000    0.00471
2466.50000    0.00791
2467.00000    0.01089
2467.50000    0.01358
2468.00000    0.01590
2468.50000    0.01783
2469.00000    0.01935
2469.50000    0.02048
2470.00000    0.02128
2470.50000    0.02183
2471.00000    0.02223
2471.50000    0.02261
2472.00000    0.02310
2472.50000    0.02385
2473.00000    0.02500
2473.50000    0.02670
2474.00000    0.02908
2474.50000    0.03224
2475.00000    0.03627
2475.50000    0.04121
2476.00000    0.04708
2476.50000    0.05384
2477.00000    0.06140
2477.50000    0.06963
2478.00000    0.07834
2478.50000    0.08729
2479.00000    0.09618
2479.50000    0.10468
2480.00000    0.11241
2480.50000    0.11898
2481.00000    0.12398
2481.50000    0.12699
2482.00000    0.12761
2482.50000    0.12549
2483.00000    0.12033
2483.50000    0.11187
2484.00000    0.09996
2484.50000    0.08454
2485.00000    0.06563
2485.50000    0.04338
2486.00000    0.01803
2486.50000   -0.01008
2487.00000   -0.04053
2487.50000   -0.07280
2488.00000   -0.10635
2488.50000   -0.14058
2489.00000   -0.17486
2489.50000   -0.20858
2490.00000   -0.24115
2490.50000   -0.27202
2491.00000   -0.30066
2491.50000   -0.32664
2492.00000   -0.34958
2492.50000   -0.36915
2493.00000   -0.38511
2493.50000   -0.39727
2494.00000   -0.40550
2494.50000   -0.40971
2495.00000   -0.40985
2495.50000   -0.40590
2496.00000   -0.39788
2496.50000   -0.38580
2497.00000   -0.36974
2497.50000   -0.34975
2498.00000   -0.32597
2498.50000   -0.29852
2499.00000   -0.26759
2499.50000   -0.23344
2500.00000   -0.19635
2500.50000   -0.15669
2501.00000   -0.11489
2501.50000   -0.07145
2502.00000   -0.02692
2502.50000    0.01808
2503.00000    0.06291
2503.50000    0.10689
2504.00000    0.14932
2504.50000    0.18953
2505.00000    0.22688
2505.50000    0.26077
2506.00000    0.29067
2506.50000    0.31615
2507.00000    0.33686
2507.50000    0.35256
2508.00000    0.36313
2508.50000    0.36855
2509.00000    0.36891
2509.50000    0.36441
2510.00000    0.35533
2510.50000    0.34203
2511.00000    0.32493
2511.50000    0.30450
2512.00000    0.28125
2512.50000    0.25569
2513.00000    0.22836
2513.50000    0.19977
2514.00000    0.17042
2514.50000    0.14077
2515.00000    0.11127
2515.50000    0.08232
2516.00000    0.05427
2516.50000    0.02746
2517.00000    0.00216
2517.50000   -0.02139
2518.00000   -0.04297
2518.50000   -0.06243
2519.00000   -0.07962
2519.50000   -0.09443
2520.00000   -0.10679
2520.50000   -0.11665
2521.00000   -0.12398
2521.50000   -0.12878
2522.00000   -0.13111
2522.50000   -0.13102
2523.00000   -0.12861
2523.50000   -0.12401
2524.00000   -0.11739
2524.50000   -0.10893
2525.00000   -0.09887
2525.50000   -0.08746
2526.00000   -0.07498
2526.50000   -0.06171
2527.00000   -0.04796
2527.50000   -0.03402
2528.00000   -0.02017
2528.50000   -0.00666
2529.00000    0.00628
2529.50000    0.01850
2530.00000    0.02990
2530.50000    0.04045
2531.00000    0.05019
2531.50000    0.05924
2532.00000    0.06780
2532.50000    0.07615
2533.00000    0.08459
2533.50000    0.09349
2534.00000    0.10324
2534.50000    0.11422
2535.00000    0.12680
2535.50000    0.14129
2536.00000    0.15795
2536.50000    0.17695
2537.00000    0.19834
2537.50000    0.22208
2538.00000    0.24800
2538.50000    0.27582
2539.00000    0.30514
2539.50000    0.33547
2540.00000    0.36623
2540.50000    0.39676
2541.00000    0.42640
2541.50000    0.45443
2542.00000    0.48019
2542.50000    0.50300
2543.00000    0.52229
2543.50000    0.53751
2544.00000    0.54825
2544.50000    0.55414
2545.00000    0.55497
2545.50000    0.55059
2546.00000    0.54097
2546.50000    0.52618
2547.00000    0.50636
2547.50000    0.48175
2548.00000    0.45265
2548.50000    0.41942
2549.00000    0.38248
2549.50000    0.34227
2550.00000    0.29931
2550.50000    0.25410
2551.00000    0.20719
2551.50000    0.15915
2552.00000    0.11054
2552.50000    0.06193
2553.00000    0.01390
2553.50000   -0.03300
2554.00000   -0.07823
2554.50000   -0.12128
2555.00000   -0.16168
2555.50000   -0.19902
2556.00000   -0.23292
2556.50000   -0.26309
2557.00000   -0.28929
2557.50000   -0.31136
2558.00000   -0.32922
2558.50000   -0.34284
2559.00000   -0.35229
2559.50000   -0.35767
2560.00000   -0.35915
2560.50000   -0.35696
2561.00000   -0.35134
2561.50000   -0.34257
2562.00000   -0.33094
2562.50000   -0.31677
2563.00000   -0.30034
2563.50000   -0.28194
2564.00000   -0.26187
2564.50000   -0.24036
2565.00000   -0.21768
2565.50000   -0.19402
2566.00000   -0.16960
2566.50000   -0.14458
2567.00000   -0.11912
2567.50000   -0.09337
2568.00000   -0.06747
2568.50000   -0.04153
2569.00000   -0.01567
2569.50000    0.00998
2570.00000    0.03530
2570.50000    0.06015
2571.00000    0.08439
2571.50000    0.10786
2572.00000    0.13038
2572.50000    0.15175
2573.00000    0.17176
2573.50000    0.19017
2574.00000    0.20673
2574.50000    0.22120
2575.00000    0.23331
2575.50000    0.24281
2576.00000    0.24948
2576.50000    0.25312
2577.00000    0.25355
2577.50000    0.25068
2578.00000    0.24446
2578.50000    0.23492
2579.00000    0.22215
2579.50000    0.20636
2580.00000    0.18782
2580.50000    0.16687
2581.00000    0.14394
2581.50000    0.11951
2582.00000    0.09411
2582.50000    0.06831
2583.00000    0.04268
2583.50000    0.01779
2584.00000   -0.00581
2584.50000   -0.02763
2585.00000   -0.04723
2585.50000   -0.06426
2586.00000   -0.07843
2586.50000   -0.08959
2587.00000   -0.09764
2587.50000   -0.10262
2588.00000   -0.10465
2588.50000   -0.10394
2589.00000   -0.10078
2589.50000   -0.09553
2590.00000   -0.08861
2590.50000   -0.08047
2591.00000   -0.07158
2591.50000   -0.06241
2592.00000   -0.05344
2592.50000   -0.04511
2593.00000   -0.03782
2593.50000   -0.03193
2594.00000   -0.02774
2594.50000   -0.02547
2595.00000   -0.02530
2595.50000   -0.02731
2596.00000   -0.03152
2596.50000   -0.03790
2597.00000   -0.04633
2597.50000   -0.05665
2598.00000   -0.06863
2598.50000   -0.08203
2599.00000   -0.09653
2599.50000   -0.11182
2600.00000   -0.12756
2600.50000   -0.14340
2601.00000   -0.15898
2601.50000   -0.17395
2602.00000   -0.18797
2602.50000   -0.20070
2603.00000   -0.21183
2603.50000   -0.22108
2604.00000   -0.22817
2604.50000   -0.23287
2605.00000   -0.23499
2605.50000   -0.23438
2606.00000   -0.23092
2606.50000   -0.22456
2607.00000   -0.21529
2607.50000   -0.20319
2608.00000   -0.18837
2608.50000   -0.17104
2609.00000   -0.15145
2609.50000   -0.12993
2610.00000   -0.10685
2610.50000   -0.08264
2611.00000   -0.05777
2611.50000   -0.03272
2612.00000   -0.00798
2612.50000    0.01596
2613.00000    0.03865
2613.50000    0.05970
2614.00000    0.07877
2614.50000    0.09558
2615.00000    0.10996
2615.50000    0.12183
2616.00000    0.13116
2616.50000    0.13806
2617.00000    0.14268
2617.50000    0.14523
2618.00000    0.14599
2618.50000    0.14525
2619.00000    0.14331
2619.50000    0.14045
2620.00000    0.13694
2620.50000    0.13299
2621.00000    0.12875
2621.50000    0.12431
2622.00000    0.11970
2622.50000    0.11489
2623.00000    0.10977
2623.50000    0.10422
2624.00000    0.09809
2624.50000    0.09118
2625.00000    0.08335
2625.50000    0.07447
2626.00000    0.06444
2626.50000    0.05324
2627.00000    0.04092
2627.50000    0.02759
2628.00000    0.01346
2628.50000   -0.00117
2629.00000   -0.01596
2629.50000   -0.03048
2630.00000   -0.04427
2630.50000   -0.05683
2631.00000   -0.06765
2631.50000   -0.07625
2632.00000   -0.08216
2632.50000   -0.08497
2633.00000   -0.08432
2633.50000   -0.07995
2634.00000   -0.07167
2634.50000   -0.05939
2635.00000   -0.04312
2635.50000   -0.02295
2636.00000    0.00093
2636.50000    0.02828
2637.00000    0.05879
2637.50000    0.09208
2638.00000    0.12778
2638.50000    0.16546
2639.00000    0.20473
2639.50000    0.24519
2640.00000    0.28648
2640.50000    0.32825
2641.00000    0.37022
2641.50000    0.41214
2642.00000    0.45381
2642.50000    0.49508
2643.00000    0.53585
2643.50000    0.57606
2644.00000    0.61569
2644.50000    0.65477
2645.00000    0.69335
2645.50000    0.73154
2646.00000    0.76945
2646.50000    0.80727
2647.00000    0.84520
2647.50000    0.88350
2648.00000    0.92246
2648.50000    0.96244
2649.00000    1.00383
2649.50000    1.04707
2650.00000    1.09265
2650.50000    1.14110
2651.00000    1.19298
2651.50000    1.24886
2652.00000    1.30932
2652.50000    1.37492
2653.00000    1.44619
2653.50000    1.52362
2654.00000    1.60761
2654.50000    1.69851
2655.00000    1.79653
2655.50000    1.90182
2656.00000    2.01440
2656.50000    2.13416
2657.00000    2.26091
2657.50000    2.39436
2658.00000    2.53414
2658.50000    2.67979
2659.00000    2.83084
2659.50000    2.98679
2660.00000    3.14713
2660.50000    3.31138
2661.00000    3.47911
2661.50000    3.64992
2662.00000    3.82351
2662.50000    3.99963
2663.00000    4.17813
2663.50000    4.35889
2664.00000    4.54190
2664.50000    4.72715
2665.00000    4.91470
2665.50000    5.10459
2666.00000    5.29687
2666.50000    5.49153
2667.00000    5.68853
2667.50000    5.88775
2668.00000    6.08899
2668.50000    6.29195
2669.00000    6.49622
2669.50000    6.70131
2670.00000    6.90663
2670.50000    7.11148
2671.00000    7.31511
2671.50000    7.51670
2672.00000    7.71538
2672.50000    7.91028
2673.00000    8.10050
2673.50000    8.28517
2674.00000    8.46346
2674.50000    8.63456
2675.00000    8.79774
2675.50000    8.95232
2676.00000    9.09770
2676.50000    9.23334
2677.00000    9.35880
2677.50000    9.47368
2678.00000    9.57766
2678.50000    9.67051
2679.00000    9.75202
2679.50000    9.82207
2680.00000    9.88056
2680.50000    9.92746
2681.00000    9.96279
2681.50000    9.98658
2682.00000    9.99894
2682.50000   10.00000
2683.00000    9.98992
2683.50000    9.96890
2684.00000    9.93717
2684.50000    9.89499
2685.00000    9.84265
2685.50000    9.78045
2686.00000    9.70869
2686.50000    9.62772
2687.00000    9.53786
2687.50000    9.43947
2688.00000    9.33291
2688.50000    9.21853
2689.00000    9.09673
2689.50000    8.96791
2690.00000    8.83249
2690.50000    8.69094
2691.00000    8.54376
2691.50000    8.39148
2692.00000    8.23468
2692.50000    8.07400
2693.00000    7.91011
2693.50000    7.74369
2694.00000    7.57547
2694.50000    7.40617
2695.00000    7.23651
2695.50000    7.06718
2696.00000    6.89881
2696.50000    6.73197
2697.00000    6.56713
2697.50000    6.40469
2698.00000    6.24489
2698.50000    6.08789
2699.00000    5.93372
2699.50000    5.78230
2700.00000    5.63345
2700.50000    5.48689
2701.00000    5.34230
2701.50000    5.19929
2702.00000    5.05750
2702.50000    4.91654
2703.00000    4.77606
2703.50000    4.63579
2704.00000    4.49550
2704.50000    4.35507
2705.00000    4.21445
2705.50000    4.07372
2706.00000    3.93301
2706.50000    3.79257
2707.00000    3.65271
2707.50000    3.51379
2708.00000    3.37623
2708.50000    3.24048
2709.00000    3.10698
2709.50000    2.97619
2710.00000    2.84852
2710.50000    2.72436
2711.00000    2.60406
2711.50000    2.48790
2712.00000    2.37609
2712.50000    2.26879
2713.00000    2.16607
2713.50000    2.06790
2714.00000    1.97420
2714.50000    1.88480
2715.00000    1.79944
2715.50000    1.71781
2716.00000    1.63953
2716.50000    1.56417
2717.00000    1.49125
2717.50000    1.42029
2718.00000    1.35080
2718.50000    1.28233
2719.00000    1.21446
2719.50000    1.14682
2720.00000    1.07917
2720.50000    1.01134
2721.00000    0.94328
2721.50000    0.87506
2722.00000    0.80690
2722.50000    0.73911
2723.00000    0.67211
2723.50000    0.60641
2724.00000    0.54258
2724.50000    0.48120
2725.00000    0.42288
2725.50000    0.36817
2726.00000    0.31757
2726.50000    0.27146
2727.00000    0.23015
2727.50000    0.19377
2728.00000    0.16235
2728.50000    0.13578
2729.00000    0.11380
2729.50000    0.09608
2730.00000    0.08216
2730.50000    0.07155
2731.00000    0.06374
2731.50000    0.05819
2732.00000    0.05440
2732.50000    0.05192
2733.00000    0.05035
2733.50000    0.04939
2734.00000    0.04877
2734.50000    0.04832
2735.00000    0.04793
2735.50000    0.04751
2736.00000    0.04701
2736.50000    0.04639
2737.00000    0.04558
2737.50000    0.04450
2738.00000    0.04304
2738.50000    0.04105
2739.00000    0.03835
2739.50000    0.03473
2740.00000    0.02999
2740.50000    0.02393
2741.00000    0.01638
2741.50000    0.00723
2742.00000   -0.00357
2742.50000   -0.01598
2743.00000   -0.02986
2743.50000   -0.04501
2744.00000   -0.06110
2744.50000   -0.07775
2745.00000   -0.09452
2745.50000   -0.11092
2746.00000   -0.12647
2746.50000   -0.14070
2747.00000   -0.15320
2747.50000   -0.16362
2748.00000   -0.17173
2748.50000   -0.17737
2749.00000   -0.18055
2749.50000   -0.18134
2750.00000   -0.17998
2750.50000   -0.17677
2751.00000   -0.17209
2751.50000   -0.16640
2752.00000   -0.16017
2752.50000   -0.15386
2753.00000   -0.14793
2753.50000   -0.14276
2754.00000   -0.13866
2754.50000   -0.13585
2755.00000   -0.13446
2755.50000   -0.13449
2756.00000   -0.13583
2756.50000   -0.13827
2757.00000   -0.14152
2757.50000   -0.14520
2758.00000   -0.14887
2758.50000   -0.15205
2759.00000   -0.15426
2759.50000   -0.15503
2760.00000   -0.15391
2760.50000   -0.15053
2761.00000   -0.14458
2761.50000   -0.13585
2762.00000   -0.12422
2762.50000   -0.10972
2763.00000   -0.09246
2763.50000   -0.07268
2764.00000   -0.05072
2764.50000   -0.02702
2765.00000   -0.00208
2765.50000    0.02353
2766.00000    0.04922
2766.50000    0.07438
2767.00000    0.09846
2767.50000    0.12090
2768.00000    0.14127
2768.50000    0.15918
2769.00000    0.17437
2769.50000    0.18669
2770.00000    0.19609
2770.50000    0.20263
2771.00000    0.20647
2771.50000    0.20785
2772.00000    0.20709
2772.50000    0.20453
2773.00000    0.20052
2773.50000    0.19543
2774.00000    0.18958
2774.50000    0.18327
2775.00000    0.17672
2775.50000    0.17009
2776.00000    0.16348
2776.50000    0.15692
2777.00000    0.15038
2777.50000    0.14380
2778.00000    0.13707
2778.50000    0.13006
2779.00000    0.12266
2779.50000    0.11474
2780.00000    0.10623
2780.50000    0.09706
2781.00000    0.08722
2781.50000    0.07673
2782.00000    0.06563
2782.50000    0.05401
2783.00000    0.04198
2783.50000    0.02967
2784.00000    0.01720
2784.50000    0.00471
2785.00000   -0.00770
2785.50000   -0.01990
2786.00000   -0.03182
2786.50000   -0.04339
2787.00000   -0.05456
2787.50000   -0.06529
2788.00000   -0.07556
2788.50000   -0.08535
2789.00000   -0.09466
2789.50000   -0.10348
2790.00000   -0.11178
2790.50000   -0.11956
2791.00000   -0.12679
2791.50000   -0.13343
2792.00000   -0.13945
2792.50000   -0.14481
2793.00000   -0.14944
2793.50000   -0.15329
2794.00000   -0.15629
2794.50000   -0.15838
2795.00000   -0.15948
2795.50000   -0.15951
2796.00000   -0.15839
2796.50000   -0.15604
2797.00000   -0.15237
2797.50000   -0.14728
2798.00000   -0.14071
2798.50000   -0.13258
2799.00000   -0.12284
2799.50000   -0.11145
2800.00000   -0.09844
2800.50000   -0.08382
2801.00000   -0.06770
2801.50000   -0.05022
2802.00000   -0.03158
2802.50000   -0.01203
2803.00000    0.00811
2803.50000    0.02848
2804.00000    0.04865
2804.50000    0.06817
2805.00000    0.08658
2805.50000    0.10340
2806.00000    0.11815
2806.50000    0.13040
2807.00000    0.13975
2807.50000    0.14587
2808.00000    0.14850
2808.50000    0.14748
2809.00000    0.14274
2809.50000    0.13430
2810.00000    0.12229
2810.50000    0.10696
2811.00000    0.08862
2811.50000    0.06768
2812.00000    0.04461
2812.50000    0.01992
2813.00000   -0.00581
2813.50000   -0.03203
2814.00000   -0.05815
2814.50000   -0.08364
2815.00000   -0.10797
2815.50000   -0.13070
2816.00000   -0.15140
2816.50000   -0.16976
2817.00000   -0.18553
2817.50000   -0.19853
2818.00000   -0.20867
2818.50000   -0.21592
2819.00000   -0.22035
2819.50000   -0.22206
2820.00000   -0.22123
2820.50000   -0.21805
2821.00000   -0.21276
2821.50000   -0.20561
2822.00000   -0.19688
2822.50000   -0.18681
2823.00000   -0.17565
2823.50000   -0.16363
2824.00000   -0.15092
2824.50000   -0.13770
2825.00000   -0.12409
2825.50000   -0.11016
2826.00000   -0.09597
2826.50000   -0.08154
2827.00000   -0.06684
2827.50000   -0.05184
2828.00000   -0.03648
2828.50000   -0.02072
2829.00000   -0.00449
2829.50000    0.01225
2830.00000    0.02951
2830.50000    0.04727
2831.00000    0.06549
2831.50000    0.08407
2832.00000    0.10287
2832.50000    0.12171
2833.00000    0.14036
2833.50000    0.15855
2834.00000    0.17602
2834.50000    0.19245
2835.00000    0.20755
2835.50000    0.22102
2836.00000    0.23259
2836.50000    0.24204
2837.00000    0.24919
2837.50000    0.25389
2838.00000    0.25609
2838.50000    0.25577
2839.00000    0.25298
2839.50000    0.24784
2840.00000    0.24048
2840.50000    0.23109
2841.00000    0.21989
2841.50000    0.20711
2842.00000    0.19297
2842.50000    0.17770
2843.00000    0.16152
2843.50000    0.14462
2844.00000    0.12718
2844.50000    0.10937
2845.00000    0.09134
2845.50000    0.07323
2846.00000    0.05520
2846.50000    0.03739
2847.00000    0.01996
2847.50000    0.00309
2848.00000   -0.01302
2848.50000   -0.02818
2849.00000   -0.04218
2849.50000   -0.05480
2850.00000   -0.06583
2850.50000   -0.07511
2851.00000   -0.08246
2851.50000   -0.08777
2852.00000   -0.09097
2852.50000   -0.09206
2853.00000   -0.09106
2853.50000   -0.08807
2854.00000   -0.08324
2854.50000   -0.07675
2855.00000   -0.06883
2855.50000   -0.05971
2856.00000   -0.04964
2856.50000   -0.03887
2857.00000   -0.02762
2857.50000   -0.01608
2858.00000   -0.00442
2858.50000    0.00723
2859.00000    0.01880
2859.50000    0.03024
2860.00000    0.04154
2860.50000    0.05272
2861.00000    0.06380
2861.50000    0.07485
2862.00000    0.08588
2862.50000    0.09695
2863.00000    0.10806
2863.50000    0.11921
2864.00000    0.13034
2864.50000    0.14140
2865.00000    0.15228
2865.50000    0.16286
2866.00000    0.17297
2866.50000    0.18245
2867.00000    0.19110
2867.50000    0.19871
2868.00000    0.20508
2868.50000    0.21001
2869.00000    0.21328
2869.50000    0.21470
2870.00000    0.21411
2870.50000    0.21133
2871.00000    0.20625
2871.50000    0.19876
2872.00000    0.18879
2872.50000    0.17631
2873.00000    0.16135
2873.50000    0.14396
2874.00000    0.12425
2874.50000    0.10238
2875.00000    0.07857
2875.50000    0.05307
2876.00000    0.02618
2876.50000   -0.00176
2877.00000   -0.03039
2877.50000   -0.05933
2878.00000   -0.08816
2878.50000   -0.11652
2879.00000   -0.14400
2879.50000   -0.17027
2880.00000   -0.19500
2880.50000   -0.21793
2881.00000   -0.23881
2881.50000   -0.25749
2882.00000   -0.27385
2882.50000   -0.28783
2883.00000   -0.29941
2883.50000   -0.30864
2884.00000   -0.31558
2884.50000   -0.32035
2885.00000   -0.32306
2885.50000   -0.32386
2886.00000   -0.32289
2886.50000   -0.32029
2887.00000   -0.31620
2887.50000   -0.31075
2888.00000   -0.30407
2888.50000   -0.29625
2889.00000   -0.28739
2889.50000   -0.27757
2890.00000   -0.26688
2890.50000   -0.25536
2891.00000   -0.24309
2891.50000   -0.23011
2892.00000   -0.21646
2892.50000   -0.20218
2893.00000   -0.18730
2893.50000   -0.17185
2894.00000   -0.15585
2894.50000   -0.13931
2895.00000   -0.12227
2895.50000   -0.10475
2896.00000   -0.08679
2896.50000   -0.06848
2897.00000   -0.04990
2897.50000   -0.03120
2898.00000   -0.01257
2898.50000    0.00575
2899.00000    0.02347
2899.50000    0.04025
2900.00000    0.05568
2900.50000    0.06936
2901.00000    0.08082
2901.50000    0.08965
2902.00000    0.09542
2902.50000    0.09779
2903.00000    0.09649
2903.50000    0.09135
2904.00000    0.08235
2904.50000    0.06959
2905.00000    0.05335
2905.50000    0.03402
2906.00000    0.01217
2906.50000   -0.01153
2907.00000   -0.03629
2907.50000   -0.06130
2908.00000   -0.08567
2908.50000   -0.10858
2909.00000   -0.12924
2909.50000   -0.14697
2910.00000   -0.16119
2910.50000   -0.17153
2911.00000   -0.17773
2911.50000   -0.17976
2912.00000   -0.17773
2912.50000   -0.17191
2913.00000   -0.16272
2913.50000   -0.15065
2914.00000   -0.13629
2914.50000   -0.12024
2915.00000   -0.10308
2915.50000   -0.08536
2916.00000   -0.06755
2916.50000   -0.05002
2917.00000   -0.03304
2917.50000   -0.01676
2918.00000   -0.00122
2918.50000    0.01363
2919.00000    0.02792
2919.50000    0.04183
2920.00000    0.05559
2920.50000    0.06941
2921.00000    0.08351
2921.50000    0.09805
2922.00000    0.11316
2922.50000    0.12890
2923.00000    0.14527
2923.50000    0.16220
2924.00000    0.17957
2924.50000    0.19719
2925.00000    0.21486
2925.50000    0.23233
2926.00000    0.24934
2926.50000    0.26563
2927.00000    0.28094
2927.50000    0.29502
2928.00000    0.30767
2928.50000    0.31868
2929.00000    0.32790
2929.50000    0.33520
2930.00000    0.34047
2930.50000    0.34363
2931.00000    0.34465
2931.50000    0.34350
2932.00000    0.34020
2932.50000    0.33478
2933.00000    0.32728
2933.50000    0.31780
2934.00000    0.30644
2934.50000    0.29332
2935.00000    0.27860
2935.50000    0.26246
2936.00000    0.24510
2936.50000    0.22674
2937.00000    0.20763
2937.50000    0.18803
2938.00000    0.16822
2938.50000    0.14849
2939.00000    0.12913
2939.50000    0.11045
2940.00000    0.09274
2940.50000    0.07626
2941.00000    0.06128
2941.50000    0.04802
2942.00000    0.03667
2942.50000    0.02736
2943.00000    0.02017
2943.50000    0.01513
2944.00000    0.01219
2944.50000    0.01121
2945.00000    0.01201
2945.50000    0.01432
2946.00000    0.01782
2946.50000    0.02213
2947.00000    0.02683
2947.50000    0.03146
2948.00000    0.03557
2948.50000    0.03873
2949.00000    0.04051
2949.50000    0.04056
2950.00000    0.03859
2950.50000    0.03438
2951.00000    0.02780
2951.50000    0.01884
2952.00000    0.00756
2952.50000   -0.00585
2953.00000   -0.02115
2953.50000   -0.03800
2954.00000   -0.05602
2954.50000   -0.07475
2955.00000   -0.09374
2955.50000   -0.11253
2956.00000   -0.13066
2956.50000   -0.14770
2957.00000   -0.16327
2957.50000   -0.17705
2958.00000   -0.18876
2958.50000   -0.19821
2959.00000   -0.20527
2959.50000   -0.20990
2960.00000   -0.21210
2960.50000   -0.21194
2961.00000   -0.20958
2961.50000   -0.20520
2962.00000   -0.19902
2962.50000   -0.19133
2963.00000   -0.18243
2963.50000   -0.17263
2964.00000   -0.16227
2964.50000   -0.15170
2965.00000   -0.14125
2965.50000   -0.13122
2966.00000   -0.12194
2966.50000   -0.11365
2967.00000   -0.10658
2967.50000   -0.10091
2968.00000   -0.09676
2968.50000   -0.09420
2969.00000   -0.09322
2969.50000   -0.09378
2970.00000   -0.09576
2970.50000   -0.09899
2971.00000   -0.10326
2971.50000   -0.10834
2972.00000   -0.11394
2972.50000   -0.11979
2973.00000   -0.12561
2973.50000   -0.13111
2974.00000   -0.13603
2974.50000   -0.14015
2975.00000   -0.14325
2975.50000   -0.14516
2976.00000   -0.14575
2976.50000   -0.14491
2977.00000   -0.14255
2977.50000   -0.13863
2978.00000   -0.13312
2978.50000   -0.12601
2979.00000   -0.11732
2979.50000   -0.10708
2980.00000   -0.09535
2980.50000   -0.08220
2981.00000   -0.06776
2981.50000   -0.05215
2982.00000   -0.03557
2982.50000   -0.01824
2983.00000   -0.00043
2983.50000    0.01758
2984.00000    0.03544
2984.50000    0.05280
2985.00000    0.06929
2985.50000    0.08455
2986.00000    0.09824
2986.50000    0.11006
2987.00000    0.11975
2987.50000    0.12715
2988.00000    0.13215
2988.50000    0.13475
2989.00000    0.13503
2989.50000    0.13317
2990.00000    0.12941
2990.50000    0.12405
2991.00000    0.11747
2991.50000    0.11005
2992.00000    0.10217
2992.50000    0.09420
2993.00000    0.08649
2993.50000    0.07929
2994.00000    0.07284
2994.50000    0.06726
2995.00000    0.06263
2995.50000    0.05895
2996.00000    0.05617
2996.50000    0.05418
2997.00000    0.05284
2997.50000    0.05201
2998.00000    0.05155
2998.50000    0.05130
2999.00000    0.05118
2999.50000    0.05109
