1200.50000   -0.13454
1201.00000   -0.09210
1201.50000   -0.04964
1202.00000   -0.00715
1202.50000    0.03534
1203.00000    0.07778
1203.50000    0.12008
1204.00000    0.16212
1204.50000    0.20373
1205.00000    0.24473
1205.50000    0.28488
1206.00000    0.32394
1206.50000    0.36165
1207.00000    0.39772
1207.50000    0.43188
1208.00000    0.46386
1208.50000    0.49343
1209.00000    0.52037
1209.50000    0.54448
1210.00000    0.56564
1210.50000    0.58375
1211.00000    0.59877
1211.50000    0.61072
1212.00000    0.61964
1212.50000    0.62566
1213.00000    0.62893
1213.50000    0.62962
1214.00000    0.62794
1214.50000    0.62413
1215.00000    0.61842
1215.50000    0.61104
1216.00000    0.60221
1216.50000    0.59213
1217.00000    0.58099
1217.50000    0.56892
1218.00000    0.55604
1218.50000    0.54239
1219.00000    0.52801
1219.50000    0.51288
1220.00000    0.49695
1220.50000    0.48014
1221.00000    0.46234
1221.50000    0.44342
1222.00000    0.42327
1222.50000    0.40174
1223.00000    0.37873
1223.50000    0.35414
1224.00000    0.32788
1224.50000    0.29992
1225.00000    0.27027
1225.50000    0.23895
1226.00000    0.20606
1226.50000    0.17174
1227.00000    0.13617
1227.50000    0.09957
1228.00000    0.06223
1228.50000    0.02444
1229.00000   -0.01345
1229.50000   -0.05108
1230.00000   -0.08806
1230.50000   -0.12401
1231.00000   -0.15853
1231.50000   -0.19125
1232.00000   -0.22179
1232.50000   -0.24981
1233.00000   -0.27499
1233.50000   -0.29706
1234.00000   -0.31578
1234.50000   -0.33097
1235.00000   -0.34248
1235.50000   -0.35025
1236.00000   -0.35425
1236.50000   -0.35451
1237.00000   -0.35112
1237.50000   -0.34423
1238.00000   -0.33403
1238.50000   -0.32073
1239.00000   -0.30463
1239.50000   -0.28601
1240.00000   -0.26520
1240.50000   -0.24254
1241.00000   -0.21839
1241.50000   -0.19309
1242.00000   -0.16698
1242.50000   -0.14040
1243.00000   -0.11365
1243.50000   -0.08702
1244.00000   -0.06076
1244.50000   -0.03509
1245.00000   -0.01020
1245.50000    0.01377
1246.00000    0.03669
1246.50000    0.05848
1247.00000    0.07908
1247.50000    0.09845
1248.00000    0.11656
1248.50000    0.13342
1249.00000    0.14903
1249.50000    0.16340
1250.00000    0.17654
1250.50000    0.18847
1251.00000    0.19919
1251.50000    0.20871
1252.00000    0.21702
1252.50000    0.22413
1253.00000    0.23003
1253.50000    0.23471
1254.00000    0.23818
1254.50000    0.24044
1255.00000    0.24152
1255.50000    0.24143
1256.00000    0.24021
1256.50000    0.23793
1257.00000    0.23463
1257.50000    0.23041
1258.00000    0.22533
1258.50000    0.21950
1259.00000    0.21301
1259.50000    0.20594
1260.00000    0.19837
1260.50000    0.19039
1261.00000    0.18205
1261.50000    0.17339
1262.00000    0.16442
1262.50000    0.15515
1263.00000    0.14556
1263.50000    0.13560
1264.00000    0.12523
1264.50000    0.11438
1265.00000    0.10298
1265.50000    0.09098
1266.00000    0.07831
1266.50000    0.06495
1267.00000    0.05086
1267.50000    0.03607
1268.00000    0.02061
1268.50000    0.00456
1269.00000   -0.01195
1269.50000   -0.02879
1270.00000   -0.04577
1270.50000   -0.06269
1271.00000   -0.07930
1271.50000   -0.09538
1272.00000   -0.11067
1272.50000   -0.12494
1273.00000   -0.13796
1273.50000   -0.14953
1274.00000   -0.15948
1274.50000   -0.16767
1275.00000   -0.17401
1275.50000   -0.17847
1276.00000   -0.18105
1276.50000   -0.18181
1277.00000   -0.18084
1277.50000   -0.17829
1278.00000   -0.17433
1278.50000   -0.16916
1279.00000   -0.16299
1279.50000   -0.15603
1280.00000   -0.14850
1280.50000   -0.14060
1281.00000   -0.13251
1281.50000   -0.12438
1282.00000   -0.11632
1282.50000   -0.10842
1283.00000   -0.10074
1283.50000   -0.09327
1284.00000   -0.08602
1284.50000   -0.07892
1285.00000   -0.07193
1285.50000   -0.06495
1286.00000   -0.05792
1286.50000   -0.05076
1287.00000   -0.04340
1287.50000   -0.03580
1288.00000   -0.02793
1288.50000   -0.01981
1289.00000   -0.01147
1289.50000   -0.00297
1290.00000    0.00559
1290.50000    0.01409
1291.00000    0.02239
1291.50000    0.03033
1292.00000    0.03775
1292.50000    0.04449
1293.00000    0.05040
1293.50000    0.05534
1294.00000    0.05919
1294.50000    0.06186
1295.00000    0.06331
1295.50000    0.06350
1296.00000    0.06245
1296.50000    0.06019
1297.00000    0.05681
1297.50000    0.05239
1298.00000    0.04705
1298.50000    0.04092
1299.00000    0.03414
1299.50000    0.02684
1300.00000    0.01917
1300.50000    0.01125
1301.00000    0.00321
1301.50000   -0.00486
1302.00000   -0.01286
1302.50000   -0.02071
1303.00000   -0.02835
1303.50000   -0.03572
1304.00000   -0.04277
1304.50000   -0.04944
1305.00000   -0.05569
1305.50000   -0.06146
1306.00000   -0.06670
1306.50000   -0.07132
1307.00000   -0.07526
1307.50000   -0.07844
1308.00000   -0.08075
1308.50000   -0.08213
1309.00000   -0.08250
1309.50000   -0.08177
1310.00000   -0.07991
1310.50000   -0.07687
1311.00000   -0.07267
1311.50000   -0.06732
1312.00000   -0.06090
1312.50000   -0.05351
1313.00000   -0.04528
1313.50000   -0.03638
1314.00000   -0.02702
1314.50000   -0.01739
1315.00000   -0.00774
1315.50000    0.00172
1316.00000    0.01076
1316.50000    0.01917
1317.00000    0.02677
1317.50000    0.03342
1318.00000    0.03901
1318.50000    0.04348
1319.00000    0.04683
1319.50000    0.04910
1320.00000    0.05038
1320.50000    0.05082
1321.00000    0.05060
1321.50000    0.04994
1322.00000    0.04909
1322.50000    0.04833
1323.00000    0.04794
1323.50000    0.04821
1324.00000    0.04945
1324.50000    0.05195
1325.00000    0.05599
1325.50000    0.06188
1326.00000    0.06987
1326.50000    0.08026
1327.00000    0.09329
1327.50000    0.10925
1328.00000    0.12839
1328.50000    0.15098
1329.00000    0.17729
1329.50000    0.20756
1330.00000    0.24206
1330.50000    0.28102
1331.00000    0.32466
1331.50000    0.37316
1332.00000    0.42664
1332.50000    0.48520
1333.00000    0.54882
1333.50000    0.61742
1334.00000    0.69082
1334.50000    0.76872
1335.00000    0.85073
1335.50000    0.93631
1336.00000    1.02482
1336.50000    1.11550
1337.00000    1.20751
1337.50000    1.29989
1338.00000    1.39163
1338.50000    1.48167
1339.00000    1.56894
1339.50000    1.65239
1340.00000    1.73099
1340.50000    1.80379
1341.00000    1.86996
1341.50000    1.92877
1342.00000    1.97964
1342.50000    2.02214
1343.00000    2.05603
1343.50000    2.08123
1344.00000    2.09783
1344.50000    2.10609
1345.00000    2.10644
1345.50000    2.09943
1346.00000    2.08573
1346.50000    2.06610
1347.00000    2.04138
1347.50000    2.01244
1348.00000    1.98014
1348.50000    1.94534
1349.00000    1.90886
1349.50000    1.87142
1350.00000    1.83370
1350.50000    1.79624
1351.00000    1.75951
1351.50000    1.72383
1352.00000    1.68943
1352.50000    1.65641
1353.00000    1.62478
1353.50000    1.59443
1354.00000    1.56519
1354.50000    1.53680
1355.00000    1.50895
1355.50000    1.48129
1356.00000    1.45345
1356.50000    1.42505
1357.00000    1.39572
1357.50000    1.36511
1358.00000    1.33292
1358.50000    1.29886
1359.00000    1.26275
1359.50000    1.22443
1360.00000    1.18381
1360.50000    1.14090
1361.00000    1.09574
1361.50000    1.04847
1362.00000    0.99926
1362.50000    0.94836
1363.00000    0.89607
1363.50000    0.84273
1364.00000    0.78869
1364.50000    0.73436
1365.00000    0.68011
1365.50000    0.62635
1366.00000    0.57344
1366.50000    0.52174
1367.00000    0.47156
1367.50000    0.42318
1368.00000    0.37682
1368.50000    0.33266
1369.00000    0.29082
1369.50000    0.25138
1370.00000    0.21436
1370.50000    0.17974
1371.00000    0.14747
1371.50000    0.11746
1372.00000    0.08961
1372.50000    0.06381
1373.00000    0.03992
1373.50000    0.01783
1374.00000   -0.00257
1374.50000   -0.02136
1375.00000   -0.03861
1375.50000   -0.05438
1376.00000   -0.06869
1376.50000   -0.08155
1377.00000   -0.09295
1377.50000   -0.10287
1378.00000   -0.11129
1378.50000   -0.11819
1379.00000   -0.12354
1379.50000   -0.12735
1380.00000   -0.12962
1380.50000   -0.13039
1381.00000   -0.12971
1381.50000   -0.12766
1382.00000   -0.12434
1382.50000   -0.11988
1383.00000   -0.11441
1383.50000   -0.10810
1384.00000   -0.10111
1384.50000   -0.09362
1385.00000   -0.08579
1385.50000   -0.07780
1386.00000   -0.06980
1386.50000   -0.06194
1387.00000   -0.05437
1387.50000   -0.04718
1388.00000   -0.04050
1388.50000   -0.03441
1389.00000   -0.02898
1389.50000   -0.02428
1390.00000   -0.02035
1390.50000   -0.01725
1391.00000   -0.01499
1391.50000   -0.01361
1392.00000   -0.01312
1392.50000   -0.01352
1393.00000   -0.01481
1393.50000   -0.01697
1394.00000   -0.01998
1394.50000   -0.02377
1395.00000   -0.02828
1395.50000   -0.03342
1396.00000   -0.03908
1396.50000   -0.04512
1397.00000   -0.05141
1397.50000   -0.05775
1398.00000   -0.06397
1398.50000   -0.06987
1399.00000   -0.07525
1399.50000   -0.07991
1400.00000   -0.08366
1400.50000   -0.08632
1401.00000   -0.08772
1401.50000   -0.08775
1402.00000   -0.08631
1402.50000   -0.08332
1403.00000   -0.07876
1403.50000   -0.07266
1404.00000   -0.06505
1404.50000   -0.05605
1405.00000   -0.04575
1405.50000   -0.03432
1406.00000   -0.02193
1406.50000   -0.00878
1407.00000    0.00495
1407.50000    0.01903
1408.00000    0.03325
1408.50000    0.04742
1409.00000    0.06134
1409.50000    0.07481
1410.00000    0.08768
1410.50000    0.09980
1411.00000    0.11102
1411.50000    0.12123
1412.00000    0.13035
1412.50000    0.13828
1413.00000    0.14497
1413.50000    0.15036
1414.00000    0.15442
1414.50000    0.15714
1415.00000    0.15848
1415.50000    0.15846
1416.00000    0.15708
1416.50000    0.15434
1417.00000    0.15027
1417.50000    0.14490
1418.00000    0.13826
1418.50000    0.13039
1419.00000    0.12134
1419.50000    0.11115
1420.00000    0.09988
1420.50000    0.08759
1421.00000    0.07436
1421.50000    0.06025
1422.00000    0.04534
1422.50000    0.02973
1423.00000    0.01352
1423.50000   -0.00320
1424.00000   -0.02028
1424.50000   -0.03760
1425.00000   -0.05501
1425.50000   -0.07233
1426.00000   -0.08937
1426.50000   -0.10594
1427.00000   -0.12181
1427.50000   -0.13676
1428.00000   -0.15053
1428.50000   -0.16289
1429.00000   -0.17360
1429.50000   -0.18241
1430.00000   -0.18912
1430.50000   -0.19352
1431.00000   -0.19546
1431.50000   -0.19482
1432.00000   -0.19154
1432.50000   -0.18560
1433.00000   -0.17706
1433.50000   -0.16602
1434.00000   -0.15267
1434.50000   -0.13723
1435.00000   -0.12000
1435.50000   -0.10132
1436.00000   -0.08156
1436.50000   -0.06112
1437.00000   -0.04045
1437.50000   -0.01995
1438.00000   -0.00004
1438.50000    0.01889
1439.00000    0.03648
1439.50000    0.05244
1440.00000    0.06651
1440.50000    0.07852
1441.00000    0.08836
1441.50000    0.09598
1442.00000    0.10144
1442.50000    0.10482
1443.00000    0.10628
1443.50000    0.10605
1444.00000    0.10438
1444.50000    0.10154
1445.00000    0.09786
1445.50000    0.09363
1446.00000    0.08918
1446.50000    0.08479
1447.00000    0.08074
1447.50000    0.07727
1448.00000    0.07459
1448.50000    0.07286
1449.00000    0.07219
1449.50000    0.07266
1450.00000    0.07428
1450.50000    0.07702
1451.00000    0.08082
1451.50000    0.08555
1452.00000    0.09106
1452.50000    0.09715
1453.00000    0.10363
1453.50000    0.11023
1454.00000    0.11671
1454.50000    0.12280
1455.00000    0.12823
1455.50000    0.13273
1456.00000    0.13605
1456.50000    0.13796
1457.00000    0.13825
1457.50000    0.13674
1458.00000    0.13329
1458.50000    0.12784
1459.00000    0.12032
1459.50000    0.11078
1460.00000    0.09928
1460.50000    0.08596
1461.00000    0.07100
1461.50000    0.05465
1462.00000    0.03718
1462.50000    0.01893
1463.00000    0.00022
1463.50000   -0.01858
1464.00000   -0.03710
1464.50000   -0.05501
1465.00000   -0.07198
1465.50000   -0.08769
1466.00000   -0.10191
1466.50000   -0.11443
1467.00000   -0.12509
1467.50000   -0.13380
1468.00000   -0.14052
1468.50000   -0.14527
1469.00000   -0.14812
1469.50000   -0.14918
1470.00000   -0.14861
1470.50000   -0.14658
1471.00000   -0.14328
1471.50000   -0.13893
1472.00000   -0.13371
1472.50000   -0.12783
1473.00000   -0.12145
1473.50000   -0.11473
1474.00000   -0.10781
1474.50000   -0.10080
1475.00000   -0.09378
1475.50000   -0.08682
1476.00000   -0.08000
1476.50000   -0.07335
1477.00000   -0.06692
1477.50000   -0.06074
1478.00000   -0.05486
1478.50000   -0.04931
1479.00000   -0.04415
1479.50000   -0.03943
1480.00000   -0.03518
1480.50000   -0.03147
1481.00000   -0.02832
1481.50000   -0.02577
1482.00000   -0.02383
1482.50000   -0.02247
1483.00000   -0.02167
1483.50000   -0.02136
1484.00000   -0.02144
1484.50000   -0.02180
1485.00000   -0.02230
1485.50000   -0.02279
1486.00000   -0.02311
1486.50000   -0.02309
1487.00000   -0.02257
1487.50000   -0.02141
1488.00000   -0.01950
1488.50000   -0.01675
1489.00000   -0.01310
1489.50000   -0.00854
1490.00000   -0.00311
1490.50000    0.00314
1491.00000    0.01010
1491.50000    0.01764
1492.00000    0.02560
1492.50000    0.03383
1493.00000    0.04215
1493.50000    0.05041
1494.00000    0.05846
1494.50000    0.06619
1495.00000    0.07350
1495.50000    0.08034
1496.00000    0.08668
1496.50000    0.09251
1497.00000    0.09789
1497.50000    0.10285
1498.00000    0.10747
1498.50000    0.11182
1499.00000    0.11597
1499.50000    0.11997
1500.00000    0.12386
1500.50000    0.12765
1501.00000    0.13132
1501.50000    0.13480
1502.00000    0.13799
1502.50000    0.14078
1503.00000    0.14301
1503.50000    0.14451
1504.00000    0.14509
1504.50000    0.14458
1505.00000    0.14281
1505.50000    0.13963
1506.00000    0.13492
1506.50000    0.12861
1507.00000    0.12066
1507.50000    0.11110
1508.00000    0.09999
1508.50000    0.08746
1509.00000    0.07367
1509.50000    0.05885
1510.00000    0.04324
1510.50000    0.02713
1511.00000    0.01081
1511.50000   -0.00541
1512.00000   -0.02123
1512.50000   -0.03636
1513.00000   -0.05054
1513.50000   -0.06354
1514.00000   -0.07516
1514.50000   -0.08525
1515.00000   -0.09371
1515.50000   -0.10050
1516.00000   -0.10559
1516.50000   -0.10903
1517.00000   -0.11091
1517.50000   -0.11134
1518.00000   -0.11048
1518.50000   -0.10852
1519.00000   -0.10565
1519.50000   -0.10209
1520.00000   -0.09806
1520.50000   -0.09379
1521.00000   -0.08949
1521.50000   -0.08535
1522.00000   -0.08157
1522.50000   -0.07830
1523.00000   -0.07566
1523.50000   -0.07375
1524.00000   -0.07264
1524.50000   -0.07235
1525.00000   -0.07287
1525.50000   -0.07417
1526.00000   -0.07617
1526.50000   -0.07877
1527.00000   -0.08186
1527.50000   -0.08528
1528.00000   -0.08888
1528.50000   -0.09249
1529.00000   -0.09595
1529.50000   -0.09910
1530.00000   -0.10177
1530.50000   -0.10382
1531.00000   -0.10513
1531.50000   -0.10561
1532.00000   -0.10517
1532.50000   -0.10376
1533.00000   -0.10137
1533.50000   -0.09800
1534.00000   -0.09369
1534.50000   -0.08849
1535.00000   -0.08249
1535.50000   -0.07577
1536.00000   -0.06847
1536.50000   -0.06069
1537.00000   -0.05259
1537.50000   -0.04429
1538.00000   -0.03594
1538.50000   -0.02768
1539.00000   -0.01967
1539.50000   -0.01203
1540.00000   -0.00491
1540.50000    0.00157
1541.00000    0.00729
1541.50000    0.01212
1542.00000    0.01596
1542.50000    0.01872
1543.00000    0.02032
1543.50000    0.02070
1544.00000    0.01981
1544.50000    0.01762
1545.00000    0.01415
1545.50000    0.00941
1546.00000    0.00348
1546.50000   -0.00355
1547.00000   -0.01157
1547.50000   -0.02040
1548.00000   -0.02987
1548.50000   -0.03974
1549.00000   -0.04977
1549.50000   -0.05971
1550.00000   -0.06927
1550.50000   -0.07818
1551.00000   -0.08616
1551.50000   -0.09294
1552.00000   -0.09829
1552.50000   -0.10199
1553.00000   -0.10388
1553.50000   -0.10382
1554.00000   -0.10173
1554.50000   -0.09759
1555.00000   -0.09142
1555.50000   -0.08327
1556.00000   -0.07328
1556.50000   -0.06158
1557.00000   -0.04834
1557.50000   -0.03375
1558.00000   -0.01801
1558.50000   -0.00129
1559.00000    0.01625
1559.50000    0.03446
1560.00000    0.05326
1560.50000    0.07259
1561.00000    0.09243
1561.50000    0.11284
1562.00000    0.13389
1562.50000    0.15571
1563.00000    0.17847
1563.50000    0.20235
1564.00000    0.22756
1564.50000    0.25430
1565.00000    0.28279
1565.50000    0.31321
1566.00000    0.34572
1566.50000    0.38046
1567.00000    0.41751
1567.50000    0.45694
1568.00000    0.49877
1568.50000    0.54297
1569.00000    0.58953
1569.50000    0.63837
1570.00000    0.68944
1570.50000    0.74268
1571.00000    0.79802
1571.50000    0.85545
1572.00000    0.91495
1572.50000    0.97654
1573.00000    1.04028
1573.50000    1.10626
1574.00000    1.17457
1574.50000    1.24534
1575.00000    1.31870
1575.50000    1.39476
1576.00000    1.47359
1576.50000    1.55525
1577.00000    1.63972
1577.50000    1.72688
1578.00000    1.81656
1578.50000    1.90845
1579.00000    2.00215
1579.50000    2.09714
1580.00000    2.19279
1580.50000    2.28839
1581.00000    2.38309
1581.50000    2.47600
1582.00000    2.56616
1582.50000    2.65258
1583.00000    2.73423
1583.50000    2.81011
1584.00000    2.87924
1584.50000    2.94070
1585.00000    2.99363
1585.50000    3.03727
1586.00000    3.07099
1586.50000    3.09424
1587.00000    3.10662
1587.50000    3.10787
1588.00000    3.09787
1588.50000    3.07661
1589.00000    3.04424
1589.50000    3.00103
1590.00000    2.94736
1590.50000    2.88371
1591.00000    2.81068
1591.50000    2.72895
1592.00000    2.63925
1592.50000    2.54241
1593.00000    2.43931
1593.50000    2.33086
1594.00000    2.21801
1594.50000    2.10175
1595.00000    1.98304
1595.50000    1.86289
1596.00000    1.74226
1596.50000    1.62210
1597.00000    1.50331
1597.50000    1.38675
1598.00000    1.27321
1598.50000    1.16341
1599.00000    1.05796
1599.50000    0.95740
1600.00000    0.86216
1600.50000    0.77255
1601.00000    0.68880
1601.50000    0.61102
1602.00000    0.53921
1602.50000    0.47331
1603.00000    0.41316
1603.50000    0.35855
1604.00000    0.30921
1604.50000    0.26485
1605.00000    0.22515
1605.50000    0.18978
1606.00000    0.15843
1606.50000    0.13081
1607.00000    0.10666
1607.50000    0.08574
1608.00000    0.06787
1608.50000    0.05287
1609.00000    0.04065
1609.50000    0.03110
1610.00000    0.02415
1610.50000    0.01974
1611.00000    0.01783
1611.50000    0.01833
1612.00000    0.02119
1612.50000    0.02628
1613.00000    0.03348
1613.50000    0.04262
1614.00000    0.05350
1614.50000    0.06588
1615.00000    0.07951
1615.50000    0.09409
1616.00000    0.10933
1616.50000    0.12492
1617.00000    0.14054
1617.50000    0.15591
1618.00000    0.17073
1618.50000    0.18474
1619.00000    0.19773
1619.50000    0.20948
1620.00000    0.21984
1620.50000    0.22868
1621.00000    0.23591
1621.50000    0.24146
1622.00000    0.24529
1622.50000    0.24739
1623.00000    0.24776
1623.50000    0.24640
1624.00000    0.24333
1624.50000    0.23857
1625.00000    0.23213
1625.50000    0.22403
1626.00000    0.21427
1626.50000    0.20286
1627.00000    0.18982
1627.50000    0.17517
1628.00000    0.15891
1628.50000    0.14110
1629.00000    0.12177
1629.50000    0.10101
1630.00000    0.07891
1630.50000    0.05558
1631.00000    0.03117
1631.50000    0.00583
1632.00000   -0.02022
1632.50000   -0.04680
1633.00000   -0.07365
1633.50000   -0.10055
1634.00000   -0.12723
1634.50000   -0.15345
1635.00000   -0.17894
1635.50000   -0.20346
1636.00000   -0.22677
1636.50000   -0.24865
1637.00000   -0.26890
1637.50000   -0.28734
1638.00000   -0.30383
1638.50000   -0.31823
1639.00000   -0.33046
1639.50000   -0.34046
1640.00000   -0.34819
1640.50000   -0.35365
1641.00000   -0.35688
1641.50000   -0.35793
1642.00000   -0.35689
1642.50000   -0.35388
1643.00000   -0.34902
1643.50000   -0.34248
1644.00000   -0.33443
1644.50000   -0.32506
1645.00000   -0.31456
1645.50000   -0.30313
1646.00000   -0.29096
1646.50000   -0.27826
1647.00000   -0.26521
1647.50000   -0.25196
1648.00000   -0.23867
1648.50000   -0.22545
1649.00000   -0.21241
1649.50000   -0.19961
1650.00000   -0.18710
1650.50000   -0.17487
1651.00000   -0.16293
1651.50000   -0.15122
1652.00000   -0.13968
1652.50000   -0.12824
1653.00000   -0.11679
1653.50000   -0.10525
1654.00000   -0.09349
1654.50000   -0.08142
1655.00000   -0.06893
1655.50000   -0.05594
1656.00000   -0.04237
1656.50000   -0.02816
1657.00000   -0.01326
1657.50000    0.00234
1658.00000    0.01865
1658.50000    0.03563
1659.00000    0.05325
1659.50000    0.07144
1660.00000    0.09010
1660.50000    0.10913
1661.00000    0.12840
1661.50000    0.14776
1662.00000    0.16705
1662.50000    0.18609
1663.00000    0.20470
1663.50000    0.22267
1664.00000    0.23981
1664.50000    0.25589
1665.00000    0.27071
1665.50000    0.28405
1666.00000    0.29572
1666.50000    0.30552
1667.00000    0.31328
1667.50000    0.31882
1668.00000    0.32203
1668.50000    0.32278
1669.00000    0.32101
1669.50000    0.31668
1670.00000    0.30977
1670.50000    0.30032
1671.00000    0.28840
1671.50000    0.27413
1672.00000    0.25766
1672.50000    0.23916
1673.00000    0.21885
1673.50000    0.19698
1674.00000    0.17379
1674.50000    0.14957
1675.00000    0.12460
1675.50000    0.09917
1676.00000    0.07355
1676.50000    0.04804
1677.00000    0.02288
1677.50000   -0.00168
1678.00000   -0.02541
1678.50000   -0.04812
1679.00000   -0.06963
1679.50000   -0.08979
1680.00000   -0.10850
1680.50000   -0.12565
1681.00000   -0.14117
1681.50000   -0.15504
1682.00000   -0.16721
1682.50000   -0.17770
1683.00000   -0.18650
1683.50000   -0.19364
1684.00000   -0.19916
1684.50000   -0.20309
1685.00000   -0.20546
1685.50000   -0.20631
1686.00000   -0.20568
1686.50000   -0.20359
1687.00000   -0.20007
1687.50000   -0.19515
1688.00000   -0.18883
1688.50000   -0.18114
1689.00000   -0.17210
1689.50000   -0.16172
1690.00000   -0.15005
1690.50000   -0.13711
1691.00000   -0.12298
1691.50000   -0.10774
1692.00000   -0.09148
1692.50000   -0.07433
1693.00000   -0.05646
1693.50000   -0.03805
1694.00000   -0.01933
1694.50000   -0.00054
1695.00000    0.01805
1695.50000    0.03613
1696.00000    0.05339
1696.50000    0.06951
1697.00000    0.08413
1697.50000    0.09695
1698.00000    0.10763
1698.50000    0.11587
1699.00000    0.12142
1699.50000    0.12403
1700.00000    0.12353
1700.50000    0.11978
1701.00000    0.11270
1701.50000    0.10229
1702.00000    0.08862
1702.50000    0.07180
1703.00000    0.05204
1703.50000    0.02960
1704.00000    0.00482
1704.50000   -0.02191
1705.00000   -0.05013
1705.50000   -0.07937
1706.00000   -0.10909
1706.50000   -0.13873
1707.00000   -0.16773
1707.50000   -0.19553
1708.00000   -0.22157
1708.50000   -0.24532
1709.00000   -0.26631
1709.50000   -0.28411
1710.00000   -0.29833
1710.50000   -0.30869
1711.00000   -0.31499
1711.50000   -0.31708
1712.00000   -0.31493
1712.50000   -0.30860
1713.00000   -0.29821
1713.50000   -0.28398
1714.00000   -0.26618
1714.50000   -0.24516
1715.00000   -0.22130
1715.50000   -0.19502
1716.00000   -0.16677
1716.50000   -0.13699
1717.00000   -0.10614
1717.50000   -0.07465
1718.00000   -0.04291
1718.50000   -0.01132
1719.00000    0.01980
1719.50000    0.05015
1720.00000    0.07946
1720.50000    0.10754
1721.00000    0.13420
1721.50000    0.15928
1722.00000    0.18269
1722.50000    0.20432
1723.00000    0.22410
1723.50000    0.24195
1724.00000    0.25782
1724.50000    0.27165
1725.00000    0.28339
1725.50000    0.29299
1726.00000    0.30042
1726.50000    0.30565
1727.00000    0.30866
1727.50000    0.30945
1728.00000    0.30808
1728.50000    0.30458
1729.00000    0.29907
1729.50000    0.29167
1730.00000    0.28253
1730.50000    0.27187
1731.00000    0.25989
1731.50000    0.24685
1732.00000    0.23300
1732.50000    0.21861
1733.00000    0.20393
1733.50000    0.18922
1734.00000    0.17470
1734.50000    0.16055
1735.00000    0.14691
1735.50000    0.13388
1736.00000    0.12149
1736.50000    0.10974
1737.00000    0.09856
1737.50000    0.08783
1738.00000    0.07739
1738.50000    0.06705
1739.00000    0.05660
1739.50000    0.04581
1740.00000    0.03448
1740.50000    0.02239
1741.00000    0.00939
1741.50000   -0.00466
1742.00000   -0.01982
1742.50000   -0.03613
1743.00000   -0.05352
1743.50000   -0.07189
1744.00000   -0.09106
1744.50000   -0.11078
1745.00000   -0.13076
1745.50000   -0.15066
1746.00000   -0.17008
1746.50000   -0.18864
1747.00000   -0.20589
1747.50000   -0.22143
1748.00000   -0.23486
1748.50000   -0.24579
1749.00000   -0.25389
1749.50000   -0.25888
1750.00000   -0.26053
1750.50000   -0.25870
1751.00000   -0.25329
1751.50000   -0.24432
1752.00000   -0.23185
1752.50000   -0.21604
1753.00000   -0.19711
1753.50000   -0.17536
1754.00000   -0.15111
1754.50000   -0.12479
1755.00000   -0.09682
1755.50000   -0.06766
1756.00000   -0.03780
1756.50000   -0.00774
1757.00000    0.02205
1757.50000    0.05108
1758.00000    0.07892
1758.50000    0.10514
1759.00000    0.12937
1759.50000    0.15128
1760.00000    0.17059
1760.50000    0.18710
1761.00000    0.20064
1761.50000    0.21112
1762.00000    0.21851
1762.50000    0.22284
1763.00000    0.22421
1763.50000    0.22276
1764.00000    0.21870
1764.50000    0.21226
1765.00000    0.20374
1765.50000    0.19345
1766.00000    0.18172
1766.50000    0.16891
1767.00000    0.15535
1767.50000    0.14137
1768.00000    0.12730
1768.50000    0.11341
1769.00000    0.09993
1769.50000    0.08707
1770.00000    0.07494
1770.50000    0.06363
1771.00000    0.05313
1771.50000    0.04342
1772.00000    0.03436
1772.50000    0.02581
1773.00000    0.01755
1773.50000    0.00933
1774.00000    0.00090
1774.50000   -0.00802
1775.00000   -0.01771
1775.50000   -0.02842
1776.00000   -0.04036
1776.50000   -0.05372
1777.00000   -0.06860
1777.50000   -0.08505
1778.00000   -0.10304
1778.50000   -0.12245
1779.00000   -0.14310
1779.50000   -0.16472
1780.00000   -0.18696
1780.50000   -0.20941
1781.00000   -0.23162
1781.50000   -0.25309
1782.00000   -0.27331
1782.50000   -0.29175
1783.00000   -0.30790
1783.50000   -0.32128
1784.00000   -0.33146
1784.50000   -0.33806
1785.00000   -0.34079
1785.50000   -0.33940
1786.00000   -0.33377
1786.50000   -0.32386
1787.00000   -0.30969
1787.50000   -0.29142
1788.00000   -0.26927
1788.50000   -0.24352
1789.00000   -0.21456
1789.50000   -0.18281
1790.00000   -0.14875
1790.50000   -0.11288
1791.00000   -0.07576
1791.50000   -0.03790
1792.00000    0.00013
1792.50000    0.03782
1793.00000    0.07467
1793.50000    0.11020
1794.00000    0.14399
1794.50000    0.17564
1795.00000    0.20483
1795.50000    0.23126
1796.00000    0.25470
1796.50000    0.27497
1797.00000    0.29193
1797.50000    0.30550
1798.00000    0.31561
1798.50000    0.32228
1799.00000    0.32552
1799.50000    0.32541
1800.00000    0.32204
1800.50000    0.31553
1801.00000    0.30605
1801.50000    0.29377
1802.00000    0.27889
1802.50000    0.26164
1803.00000    0.24227
1803.50000    0.22105
1804.00000    0.19827
1804.50000    0.17422
1805.00000    0.14924
1805.50000    0.12364
1806.00000    0.09777
1806.50000    0.07194
1807.00000    0.04649
1807.50000    0.02173
1808.00000   -0.00204
1808.50000   -0.02456
1809.00000   -0.04559
1809.50000   -0.06493
1810.00000   -0.08242
1810.50000   -0.09794
1811.00000   -0.11144
1811.50000   -0.12290
1812.00000   -0.13233
1812.50000   -0.13980
1813.00000   -0.14540
1813.50000   -0.14925
1814.00000   -0.15151
1814.50000   -0.15231
1815.00000   -0.15181
1815.50000   -0.15016
1816.00000   -0.14749
1816.50000   -0.14393
1817.00000   -0.13957
1817.50000   -0.13449
1818.00000   -0.12872
1818.50000   -0.12231
1819.00000   -0.11527
1819.50000   -0.10759
1820.00000   -0.09926
1820.50000   -0.09029
1821.00000   -0.08067
1821.50000   -0.07043
1822.00000   -0.05960
1822.50000   -0.04827
1823.00000   -0.03652
1823.50000   -0.02450
1824.00000   -0.01237
1824.50000   -0.00033
1825.00000    0.01140
1825.50000    0.02257
1826.00000    0.03295
1826.50000    0.04228
1827.00000    0.05032
1827.50000    0.05686
1828.00000    0.06170
1828.50000    0.06471
1829.00000    0.06579
1829.50000    0.06487
1830.00000    0.06197
1830.50000    0.05715
1831.00000    0.05052
1831.50000    0.04226
1832.00000    0.03256
1832.50000    0.02169
1833.00000    0.00992
1833.50000   -0.00244
1834.00000   -0.01506
1834.50000   -0.02764
1835.00000   -0.03985
1835.50000   -0.05140
1836.00000   -0.06200
1836.50000   -0.07141
1837.00000   -0.07943
1837.50000   -0.08587
1838.00000   -0.09062
1838.50000   -0.09358
1839.00000   -0.09472
1839.50000   -0.09404
1840.00000   -0.09159
1840.50000   -0.08743
1841.00000   -0.08169
1841.50000   -0.07451
1842.00000   -0.06605
1842.50000   -0.05649
1843.00000   -0.04603
1843.50000   -0.03486
1844.00000   -0.02318
1844.50000   -0.01120
1845.00000    0.00090
1845.50000    0.01293
1846.00000    0.02473
1846.50000    0.03615
1847.00000    0.04704
1847.50000    0.05731
1848.00000    0.06683
1848.50000    0.07554
1849.00000    0.08337
1849.50000    0.09027
1850.00000    0.09622
1850.50000    0.10118
1851.00000    0.10517
1851.50000    0.10819
1852.00000    0.11024
1852.50000    0.11137
1853.00000    0.11159
1853.50000    0.11096
1854.00000    0.10951
1854.50000    0.10729
1855.00000    0.10437
1855.50000    0.10080
1856.00000    0.09664
1856.50000    0.09196
1857.00000    0.08681
1857.50000    0.08128
1858.00000    0.07541
1858.50000    0.06928
1859.00000    0.06294
1859.50000    0.05645
1860.00000    0.04987
1860.50000    0.04324
1861.00000    0.03662
1861.50000    0.03005
1862.00000    0.02358
1862.50000    0.01725
1863.00000    0.01113
1863.50000    0.00526
1864.00000   -0.00029
1864.50000   -0.00544
1865.00000   -0.01011
1865.50000   -0.01421
1866.00000   -0.01763
1866.50000   -0.02028
1867.00000   -0.02204
1867.50000   -0.02281
1868.00000   -0.02251
1868.50000   -0.02106
1869.00000   -0.01840
1869.50000   -0.01453
1870.00000   -0.00947
1870.50000   -0.00327
1871.00000    0.00394
1871.50000    0.01199
1872.00000    0.02067
1872.50000    0.02972
1873.00000    0.03881
1873.50000    0.04761
1874.00000    0.05576
1874.50000    0.06288
1875.00000    0.06861
1875.50000    0.07260
1876.00000    0.07455
1876.50000    0.07423
1877.00000    0.07145
1877.50000    0.06613
1878.00000    0.05826
1878.50000    0.04792
1879.00000    0.03531
1879.50000    0.02067
1880.00000    0.00436
1880.50000   -0.01321
1881.00000   -0.03159
1881.50000   -0.05029
1882.00000   -0.06880
1882.50000   -0.08663
1883.00000   -0.10330
1883.50000   -0.11839
1884.00000   -0.13152
1884.50000   -0.14239
1885.00000   -0.15079
1885.50000   -0.15655
1886.00000   -0.15963
1886.50000   -0.16004
1887.00000   -0.15787
1887.50000   -0.15327
1888.00000   -0.14645
1888.50000   -0.13764
1889.00000   -0.12712
1889.50000   -0.11517
1890.00000   -0.10208
1890.50000   -0.08812
1891.00000   -0.07356
1891.50000   -0.05865
1892.00000   -0.04361
1892.50000   -0.02865
1893.00000   -0.01396
1893.50000    0.00029
1894.00000    0.01392
1894.50000    0.02678
1895.00000    0.03870
1895.50000    0.04953
1896.00000    0.05909
1896.50000    0.06721
1897.00000    0.07372
1897.50000    0.07846
1898.00000    0.08126
1898.50000    0.08199
1899.00000    0.08054
1899.50000    0.07681
1900.00000    0.07078
1900.50000    0.06247
1901.00000    0.05193
1901.50000    0.03931
1902.00000    0.02480
1902.50000    0.00866
1903.00000   -0.00878
1903.50000   -0.02714
1904.00000   -0.04602
1904.50000   -0.06494
1905.00000   -0.08345
1905.50000   -0.10105
1906.00000   -0.11728
1906.50000   -0.13169
1907.00000   -0.14389
1907.50000   -0.15351
1908.00000   -0.16030
1908.50000   -0.16407
1909.00000   -0.16471
1909.50000   -0.16221
1910.00000   -0.15668
1910.50000   -0.14831
1911.00000   -0.13737
1911.50000   -0.12423
1912.00000   -0.10932
1912.50000   -0.09313
1913.00000   -0.07618
1913.50000   -0.05901
1914.00000   -0.04215
1914.50000   -0.02614
1915.00000   -0.01143
1915.50000    0.00156
1916.00000    0.01250
1916.50000    0.02113
1917.00000    0.02730
1917.50000    0.03098
1918.00000    0.03221
1918.50000    0.03118
1919.00000    0.02813
1919.50000    0.02340
1920.00000    0.01742
1920.50000    0.01064
1921.00000    0.00356
1921.50000   -0.00331
1922.00000   -0.00950
1922.50000   -0.01454
1923.00000   -0.01803
1923.50000   -0.01964
1924.00000   -0.01912
1924.50000   -0.01631
1925.00000   -0.01118
1925.50000   -0.00378
1926.00000    0.00576
1926.50000    0.01718
1927.00000    0.03018
1927.50000    0.04436
1928.00000    0.05930
1928.50000    0.07454
1929.00000    0.08962
1929.50000    0.10409
1930.00000    0.11753
1930.50000    0.12956
1931.00000    0.13986
1931.50000    0.14818
1932.00000    0.15432
1932.50000    0.15820
1933.00000    0.15976
1933.50000    0.15904
1934.00000    0.15616
1934.50000    0.15125
1935.00000    0.14454
1935.50000    0.13624
1936.00000    0.12665
1936.50000    0.11604
1937.00000    0.10470
1937.50000    0.09293
1938.00000    0.08102
1938.50000    0.06923
1939.00000    0.05783
1939.50000    0.04703
1940.00000    0.03706
1940.50000    0.02809
1941.00000    0.02027
1941.50000    0.01373
1942.00000    0.00856
1942.50000    0.00482
1943.00000    0.00256
1943.50000    0.00176
1944.00000    0.00240
1944.50000    0.00443
1945.00000    0.00776
1945.50000    0.01226
1946.00000    0.01780
1946.50000    0.02420
1947.00000    0.03127
1947.50000    0.03880
1948.00000    0.04656
1948.50000    0.05432
1949.00000    0.06186
1949.50000    0.06893
1950.00000    0.07531
1950.50000    0.08081
1951.00000    0.08524
1951.50000    0.08843
1952.00000    0.09027
1952.50000    0.09067
1953.00000    0.08955
1953.50000    0.08692
1954.00000    0.08277
1954.50000    0.07717
1955.00000    0.07021
1955.50000    0.06201
1956.00000    0.05271
1956.50000    0.04250
1957.00000    0.03157
1957.50000    0.02013
1958.00000    0.00841
1958.50000   -0.00339
1959.00000   -0.01502
1959.50000   -0.02627
1960.00000   -0.03693
1960.50000   -0.04682
1961.00000   -0.05575
1961.50000   -0.06360
1962.00000   -0.07024
1962.50000   -0.07559
1963.00000   -0.07959
1963.50000   -0.08224
1964.00000   -0.08355
1964.50000   -0.08358
1965.00000   -0.08241
1965.50000   -0.08015
1966.00000   -0.07695
1966.50000   -0.07296
1967.00000   -0.06837
1967.50000   -0.06336
1968.00000   -0.05811
1968.50000   -0.05281
1969.00000   -0.04764
1969.50000   -0.04276
1970.00000   -0.03831
1970.50000   -0.03440
1971.00000   -0.03112
1971.50000   -0.02855
1972.00000   -0.02670
1972.50000   -0.02559
1973.00000   -0.02519
1973.50000   -0.02546
1974.00000   -0.02632
1974.50000   -0.02770
1975.00000   -0.02949
1975.50000   -0.03158
1976.00000   -0.03388
1976.50000   -0.03627
1977.00000   -0.03864
1977.50000   -0.04090
1978.00000   -0.04294
1978.50000   -0.04470
1979.00000   -0.04611
1979.50000   -0.04709
1980.00000   -0.04761
1980.50000   -0.04762
1981.00000   -0.04708
1981.50000   -0.04597
1982.00000   -0.04424
1982.50000   -0.04187
1983.00000   -0.03882
1983.50000   -0.03503
1984.00000   -0.03046
1984.50000   -0.02504
1985.00000   -0.01868
1985.50000   -0.01131
1986.00000   -0.00281
1986.50000    0.00691
1987.00000    0.01796
1987.50000    0.03046
1988.00000    0.04452
1988.50000    0.06022
1989.00000    0.07765
1989.50000    0.09686
1990.00000    0.11787
1990.50000    0.14068
1991.00000    0.16523
1991.50000    0.19142
1992.00000    0.21911
1992.50000    0.24809
1993.00000    0.27812
1993.50000    0.30891
1994.00000    0.34012
1994.50000    0.37139
1995.00000    0.40231
1995.50000    0.43248
1996.00000    0.46149
1996.50000    0.48893
1997.00000    0.51442
1997.50000    0.53762
1998.00000    0.55823
1998.50000    0.57598
1999.00000    0.59071
1999.50000    0.60227
2000.00000    0.61062
2000.50000    0.61577
2001.00000    0.61779
2001.50000    0.61680
2002.00000    0.61298
2002.50000    0.60652
2003.00000    0.59764
2003.50000    0.58656
2004.00000    0.57350
2004.50000    0.55865
2005.00000    0.54215
2005.50000    0.52413
2006.00000    0.50464
2006.50000    0.48369
2007.00000    0.46125
2007.50000    0.43722
2008.00000    0.41150
2008.50000    0.38393
2009.00000    0.35437
2009.50000    0.32267
2010.00000    0.28871
2010.50000    0.25241
2011.00000    0.21376
2011.50000    0.17281
2012.00000    0.12969
2012.50000    0.08463
2013.00000    0.03794
2013.50000   -0.00997
2014.00000   -0.05860
2014.50000   -0.10740
2015.00000   -0.15575
2015.50000   -0.20296
2016.00000   -0.24837
2016.50000   -0.29129
2017.00000   -0.33104
2017.50000   -0.36701
2018.00000   -0.39864
2018.50000   -0.42544
2019.00000   -0.44703
2019.50000   -0.46313
2020.00000   -0.47357
2020.50000   -0.47832
2021.00000   -0.47742
2021.50000   -0.47107
2022.00000   -0.45954
2022.50000   -0.44321
2023.00000   -0.42254
2023.50000   -0.39803
2024.00000   -0.37026
2024.50000   -0.33983
2025.00000   -0.30733
2025.50000   -0.27340
2026.00000   -0.23861
2026.50000   -0.20353
2027.00000   -0.16870
2027.50000   -0.13458
2028.00000   -0.10159
2028.50000   -0.07010
2029.00000   -0.04041
2029.50000   -0.01273
2030.00000    0.01276
2030.50000    0.03595
2031.00000    0.05681
2031.50000    0.07535
2032.00000    0.09163
2032.50000    0.10576
2033.00000    0.11787
2033.50000    0.12815
2034.00000    0.13681
2034.50000    0.14405
2035.00000    0.15012
2035.50000    0.15523
2036.00000    0.15963
2036.50000    0.16354
2037.00000    0.16714
2037.50000    0.17063
2038.00000    0.17416
2038.50000    0.17784
2039.00000    0.18178
2039.50000    0.18602
2040.00000    0.19060
2040.50000    0.19550
2041.00000    0.20069
2041.50000    0.20610
2042.00000    0.21163
2042.50000    0.21720
2043.00000    0.22267
2043.50000    0.22793
2044.00000    0.23284
2044.50000    0.23727
2045.00000    0.24110
2045.50000    0.24420
2046.00000    0.24647
2046.50000    0.24780
2047.00000    0.24810
2047.50000    0.24726
2048.00000    0.24522
2048.50000    0.24189
2049.00000    0.23719
2049.50000    0.23105
2050.00000    0.22339
2050.50000    0.21415
2051.00000    0.20325
2051.50000    0.19064
2052.00000    0.17627
2052.50000    0.16009
2053.00000    0.14210
2053.50000    0.12231
2054.00000    0.10075
2054.50000    0.07751
2055.00000    0.05273
2055.50000    0.02655
2056.00000   -0.00078
2056.50000   -0.02901
2057.00000   -0.05781
2057.50000   -0.08683
2058.00000   -0.11566
2058.50000   -0.14387
2059.00000   -0.17102
2059.50000   -0.19663
2060.00000   -0.22026
2060.50000   -0.24145
2061.00000   -0.25981
2061.50000   -0.27494
2062.00000   -0.28655
2062.50000   -0.29436
2063.00000   -0.29820
2063.50000   -0.29796
2064.00000   -0.29361
2064.50000   -0.28520
2065.00000   -0.27288
2065.50000   -0.25685
2066.00000   -0.23741
2066.50000   -0.21490
2067.00000   -0.18972
2067.50000   -0.16233
2068.00000   -0.13319
2068.50000   -0.10280
2069.00000   -0.07166
2069.50000   -0.04025
2070.00000   -0.00904
2070.50000    0.02153
2071.00000    0.05106
2071.50000    0.07922
2072.00000    0.10568
2072.50000    0.13022
2073.00000    0.15264
2073.50000    0.17282
2074.00000    0.19066
2074.50000    0.20612
2075.00000    0.21922
2075.50000    0.22998
2076.00000    0.23846
2076.50000    0.24473
2077.00000    0.24887
2077.50000    0.25097
2078.00000    0.25112
2078.50000    0.24938
2079.00000    0.24584
2079.50000    0.24056
2080.00000    0.23360
2080.50000    0.22503
2081.00000    0.21491
2081.50000    0.20332
2082.00000    0.19036
2082.50000    0.17615
2083.00000    0.16083
2083.50000    0.14458
2084.00000    0.12760
2084.50000    0.11012
2085.00000    0.09242
2085.50000    0.07478
2086.00000    0.05750
2086.50000    0.04087
2087.00000    0.02521
2087.50000    0.01078
2088.00000   -0.00216
2088.50000   -0.01339
2089.00000   -0.02275
2089.50000   -0.03013
2090.00000   -0.03547
2090.50000   -0.03879
2091.00000   -0.04014
2091.50000   -0.03964
2092.00000   -0.03746
2092.50000   -0.03381
2093.00000   -0.02891
2093.50000   -0.02302
2094.00000   -0.01639
2094.50000   -0.00927
2095.00000   -0.00191
2095.50000    0.00550
2096.00000    0.01277
2096.50000    0.01973
2097.00000    0.02628
2097.50000    0.03232
2098.00000    0.03778
2098.50000    0.04261
2099.00000    0.04678
2099.50000    0.05027
2100.00000    0.05304
2100.50000    0.05506
2101.00000    0.05626
2101.50000    0.05658
2102.00000    0.05595
2102.50000    0.05424
2103.00000    0.05135
2103.50000    0.04715
2104.00000    0.04151
2104.50000    0.03433
2105.00000    0.02550
2105.50000    0.01494
2106.00000    0.00260
2106.50000   -0.01151
2107.00000   -0.02737
2107.50000   -0.04489
2108.00000   -0.06395
2108.50000   -0.08437
2109.00000   -0.10595
2109.50000   -0.12843
2110.00000   -0.15155
2110.50000   -0.17502
2111.00000   -0.19853
2111.50000   -0.22180
2112.00000   -0.24453
2112.50000   -0.26642
2113.00000   -0.28723
2113.50000   -0.30671
2114.00000   -0.32464
2114.50000   -0.34082
2115.00000   -0.35508
2115.50000   -0.36728
2116.00000   -0.37727
2116.50000   -0.38494
2117.00000   -0.39020
2117.50000   -0.39295
2118.00000   -0.39312
2118.50000   -0.39067
2119.00000   -0.38554
2119.50000   -0.37773
2120.00000   -0.36722
2120.50000   -0.35406
2121.00000   -0.33829
2121.50000   -0.32001
2122.00000   -0.29935
2122.50000   -0.27647
2123.00000   -0.25157
2123.50000   -0.22489
2124.00000   -0.19668
2124.50000   -0.16725
2125.00000   -0.13692
2125.50000   -0.10602
2126.00000   -0.07488
2126.50000   -0.04385
2127.00000   -0.01325
2127.50000    0.01659
2128.00000    0.04538
2128.50000    0.07286
2129.00000    0.09879
2129.50000    0.12298
2130.00000    0.14526
2130.50000    0.16550
2131.00000    0.18362
2131.50000    0.19954
2132.00000    0.21324
2132.50000    0.22470
2133.00000    0.23394
2133.50000    0.24099
2134.00000    0.24588
2134.50000    0.24869
2135.00000    0.24948
2135.50000    0.24832
2136.00000    0.24532
2136.50000    0.24057
2137.00000    0.23421
2137.50000    0.22637
2138.00000    0.21721
2138.50000    0.20691
2139.00000    0.19568
2139.50000    0.18374
2140.00000    0.17133
2140.50000    0.15873
2141.00000    0.14620
2141.50000    0.13404
2142.00000    0.12253
2142.50000    0.11195
2143.00000    0.10256
2143.50000    0.09460
2144.00000    0.08825
2144.50000    0.08368
2145.00000    0.08098
2145.50000    0.08018
2146.00000    0.08124
2146.50000    0.08406
2147.00000    0.08847
2147.50000    0.09422
2148.00000    0.10101
2148.50000    0.10848
2149.00000    0.11623
2149.50000    0.12384
2150.00000    0.13085
2150.50000    0.13684
2151.00000    0.14138
2151.50000    0.14408
2152.00000    0.14460
2152.50000    0.14268
2153.00000    0.13812
2153.50000    0.13081
2154.00000    0.12075
2154.50000    0.10802
2155.00000    0.09280
2155.50000    0.07538
2156.00000    0.05611
2156.50000    0.03546
2157.00000    0.01392
2157.50000   -0.00793
2158.00000   -0.02948
2158.50000   -0.05012
2159.00000   -0.06921
2159.50000   -0.08613
2160.00000   -0.10030
2160.50000   -0.11117
2161.00000   -0.11828
2161.50000   -0.12121
2162.00000   -0.11966
2162.50000   -0.11341
2163.00000   -0.10235
2163.50000   -0.08647
2164.00000   -0.06591
2164.50000   -0.04089
2165.00000   -0.01176
2165.50000    0.02101
2166.00000    0.05687
2166.50000    0.09516
2167.00000    0.13514
2167.50000    0.17601
2168.00000    0.21694
2168.50000    0.25707
2169.00000    0.29551
2169.50000    0.33144
2170.00000    0.36407
2170.50000    0.39266
2171.00000    0.41660
2171.50000    0.43537
2172.00000    0.44859
2172.50000    0.45602
2173.00000    0.45759
2173.50000    0.45335
2174.00000    0.44352
2174.50000    0.42845
2175.00000    0.40861
2175.50000    0.38459
2176.00000    0.35702
2176.50000    0.32662
2177.00000    0.29411
2177.50000    0.26020
2178.00000    0.22559
2178.50000    0.19089
2179.00000    0.15666
2179.50000    0.12335
2180.00000    0.09131
2180.50000    0.06080
2181.00000    0.03197
2181.50000    0.00488
2182.00000   -0.02050
2182.50000   -0.04424
2183.00000   -0.06648
2183.50000   -0.08738
2184.00000   -0.10710
2184.50000   -0.12578
2185.00000   -0.14357
2185.50000   -0.16057
2186.00000   -0.17682
2186.50000   -0.19235
2187.00000   -0.20712
2187.50000   -0.22107
2188.00000   -0.23409
2188.50000   -0.24605
2189.00000   -0.25683
2189.50000   -0.26626
2190.00000   -0.27422
2190.50000   -0.28057
2191.00000   -0.28521
2191.50000   -0.28804
2192.00000   -0.28902
2192.50000   -0.28809
2193.00000   -0.28526
2193.50000   -0.28053
2194.00000   -0.27395
2194.50000   -0.26555
2195.00000   -0.25541
2195.50000   -0.24359
2196.00000   -0.23019
2196.50000   -0.21531
2197.00000   -0.19905
2197.50000   -0.18154
2198.00000   -0.16292
2198.50000   -0.14334
2199.00000   -0.12296
2199.50000   -0.10197
2200.00000   -0.08058
2200.50000   -0.05900
2201.00000   -0.03744
2201.50000   -0.01613
2202.00000    0.00472
2202.50000    0.02489
2203.00000    0.04421
2203.50000    0.06250
2204.00000    0.07965
2204.50000    0.09556
2205.00000    0.11018
2205.50000    0.12348
2206.00000    0.13550
2206.50000    0.14627
2207.00000    0.15588
2207.50000    0.16441
2208.00000    0.17197
2208.50000    0.17864
2209.00000    0.18450
2209.50000    0.18961
2210.00000    0.19401
2210.50000    0.19767
2211.00000    0.20058
2211.50000    0.20267
2212.00000    0.20382
2212.50000    0.20393
2213.00000    0.20286
2213.50000    0.20046
2214.00000    0.19659
2214.50000    0.19113
2215.00000    0.18396
2215.50000    0.17501
2216.00000    0.16422
2216.50000    0.15157
2217.00000    0.13709
2217.50000    0.12082
2218.00000    0.10286
2218.50000    0.08330
2219.00000    0.06230
2219.50000    0.03999
2220.00000    0.01656
2220.50000   -0.00782
2221.00000   -0.03294
2221.50000   -0.05861
2222.00000   -0.08461
2222.50000   -0.11070
2223.00000   -0.13664
2223.50000   -0.16215
2224.00000   -0.18694
2224.50000   -0.21071
2225.00000   -0.23311
2225.50000   -0.25381
2226.00000   -0.27245
2226.50000   -0.28867
2227.00000   -0.30213
2227.50000   -0.31252
2228.00000   -0.31955
2228.50000   -0.32301
2229.00000   -0.32273
2229.50000   -0.31865
2230.00000   -0.31077
2230.50000   -0.29921
2231.00000   -0.28415
2231.50000   -0.26590
2232.00000   -0.24482
2232.50000   -0.22136
2233.00000   -0.19600
2233.50000   -0.16928
2234.00000   -0.14172
2234.50000   -0.11385
2235.00000   -0.08615
2235.50000   -0.05905
2236.00000   -0.03291
2236.50000   -0.00801
2237.00000    0.01548
2237.50000    0.03746
2238.00000    0.05794
2238.50000    0.07698
2239.00000    0.09474
2239.50000    0.11141
2240.00000    0.12722
2240.50000    0.14241
2241.00000    0.15719
2241.50000    0.17177
2242.00000    0.18628
2242.50000    0.20081
2243.00000    0.21537
2243.50000    0.22990
2244.00000    0.24427
2244.50000    0.25827
2245.00000    0.27164
2245.50000    0.28407
2246.00000    0.29524
2246.50000    0.30478
2247.00000    0.31237
2247.50000    0.31768
2248.00000    0.32043
2248.50000    0.32040
2249.00000    0.31743
2249.50000    0.31143
2250.00000    0.30239
2250.50000    0.29038
2251.00000    0.27553
2251.50000    0.25806
2252.00000    0.23824
2252.50000    0.21639
2253.00000    0.19288
2253.50000    0.16813
2254.00000    0.14255
2254.50000    0.11658
2255.00000    0.09065
2255.50000    0.06520
2256.00000    0.04063
2256.50000    0.01732
2257.00000   -0.00436
2257.50000   -0.02411
2258.00000   -0.04164
2258.50000   -0.05674
2259.00000   -0.06923
2259.50000   -0.07897
2260.00000   -0.08591
2260.50000   -0.09003
2261.00000   -0.09136
2261.50000   -0.09001
2262.00000   -0.08613
2262.50000   -0.07993
2263.00000   -0.07165
2263.50000   -0.06158
2264.00000   -0.05007
2264.50000   -0.03748
2265.00000   -0.02418
2265.50000   -0.01059
2266.00000    0.00288
2266.50000    0.01583
2267.00000    0.02785
2267.50000    0.03856
2268.00000    0.04761
2268.50000    0.05466
2269.00000    0.05945
2269.50000    0.06174
2270.00000    0.06134
2270.50000    0.05813
2271.00000    0.05206
2271.50000    0.04314
2272.00000    0.03144
2272.50000    0.01712
2273.00000    0.00038
2273.50000   -0.01848
2274.00000   -0.03912
2274.50000   -0.06113
2275.00000   -0.08406
2275.50000   -0.10740
2276.00000   -0.13066
2276.50000   -0.15328
2277.00000   -0.17473
2277.50000   -0.19452
2278.00000   -0.21216
2278.50000   -0.22722
2279.00000   -0.23935
2279.50000   -0.24827
2280.00000   -0.25378
2280.50000   -0.25580
2281.00000   -0.25433
2281.50000   -0.24947
2282.00000   -0.24142
2282.50000   -0.23046
2283.00000   -0.21694
2283.50000   -0.20129
2284.00000   -0.18396
2284.50000   -0.16541
2285.00000   -0.14614
2285.50000   -0.12660
2286.00000   -0.10722
2286.50000   -0.08840
2287.00000   -0.07046
2287.50000   -0.05365
2288.00000   -0.03817
2288.50000   -0.02414
2289.00000   -0.01161
2289.50000   -0.00055
2290.00000    0.00909
2290.50000    0.01744
2291.00000    0.02464
2291.50000    0.03087
2292.00000    0.03629
2292.50000    0.04108
2293.00000    0.04541
2293.50000    0.04942
2294.00000    0.05321
2294.50000    0.05685
2295.00000    0.06040
2295.50000    0.06384
2296.00000    0.06713
2296.50000    0.07021
2297.00000    0.07296
2297.50000    0.07524
2298.00000    0.07689
2298.50000    0.07773
2299.00000    0.07757
2299.50000    0.07622
2300.00000    0.07350
2300.50000    0.06925
2301.00000    0.06331
2301.50000    0.05559
2302.00000    0.04603
2302.50000    0.03461
2303.00000    0.02139
2303.50000    0.00649
2304.00000   -0.00992
2304.50000   -0.02758
2305.00000   -0.04616
2305.50000   -0.06528
2306.00000   -0.08451
2306.50000   -0.10338
2307.00000   -0.12137
2307.50000   -0.13799
2308.00000   -0.15272
2308.50000   -0.16511
2309.00000   -0.17472
2309.50000   -0.18121
2310.00000   -0.18430
2310.50000   -0.18383
2311.00000   -0.17972
2311.50000   -0.17202
2312.00000   -0.16088
2312.50000   -0.14655
2313.00000   -0.12936
2313.50000   -0.10974
2314.00000   -0.08817
2314.50000   -0.06515
2315.00000   -0.04121
2315.50000   -0.01687
2316.00000    0.00737
2316.50000    0.03108
2317.00000    0.05387
2317.50000    0.07543
2318.00000    0.09553
2318.50000    0.11401
2319.00000    0.13081
2319.50000    0.14591
2320.00000    0.15935
2320.50000    0.17125
2321.00000    0.18171
2321.50000    0.19087
2322.00000    0.19887
2322.50000    0.20581
2323.00000    0.21178
2323.50000    0.21683
2324.00000    0.22096
2324.50000    0.22415
2325.00000    0.22631
2325.50000    0.22733
2326.00000    0.22708
2326.50000    0.22540
2327.00000    0.22213
2327.50000    0.21712
2328.00000    0.21024
2328.50000    0.20140
2329.00000    0.19055
2329.50000    0.17766
2330.00000    0.16281
2330.50000    0.14610
2331.00000    0.12770
2331.50000    0.10785
2332.00000    0.08684
2332.50000    0.06501
2333.00000    0.04273
2333.50000    0.02042
2334.00000   -0.00149
2334.50000   -0.02256
2335.00000   -0.04236
2335.50000   -0.06046
2336.00000   -0.07647
2336.50000   -0.09004
2337.00000   -0.10087
2337.50000   -0.10872
2338.00000   -0.11343
2338.50000   -0.11490
2339.00000   -0.11311
2339.50000   -0.10813
2340.00000   -0.10011
2340.50000   -0.08927
2341.00000   -0.07590
2341.50000   -0.06036
2342.00000   -0.04304
2342.50000   -0.02439
2343.00000   -0.00488
2343.50000    0.01501
2344.00000    0.03480
2344.50000    0.05404
2345.00000    0.07228
2345.50000    0.08913
2346.00000    0.10424
2346.50000    0.11731
2347.00000    0.12810
2347.50000    0.13643
2348.00000    0.14217
2348.50000    0.14524
2349.00000    0.14562
2349.50000    0.14331
2350.00000    0.13838
2350.50000    0.13091
2351.00000    0.12099
2351.50000    0.10875
2352.00000    0.09434
2352.50000    0.07792
2353.00000    0.05965
2353.50000    0.03973
2354.00000    0.01837
2354.50000   -0.00421
2355.00000   -0.02775
2355.50000   -0.05197
2356.00000   -0.07656
2356.50000   -0.10120
2357.00000   -0.12552
2357.50000   -0.14913
2358.00000   -0.17163
2358.50000   -0.19263
2359.00000   -0.21170
2359.50000   -0.22844
2360.00000   -0.24250
2360.50000   -0.25352
2361.00000   -0.26123
2361.50000   -0.26540
2362.00000   -0.26588
2362.50000   -0.26262
2363.00000   -0.25564
2363.50000   -0.24506
2364.00000   -0.23110
2364.50000   -0.21407
2365.00000   -0.19437
2365.50000   -0.17246
2366.00000   -0.14889
2366.50000   -0.12424
2367.00000   -0.09911
2367.50000   -0.07413
2368.00000   -0.04988
2368.50000   -0.02693
2369.00000   -0.00578
2369.50000    0.01314
2370.00000    0.02951
2370.50000    0.04310
2371.00000    0.05382
2371.50000    0.06166
2372.00000    0.06677
2372.50000    0.06939
2373.00000    0.06987
2373.50000    0.06861
2374.00000    0.06611
2374.50000    0.06287
2375.00000    0.05942
2375.50000    0.05625
2376.00000    0.05381
2376.50000    0.05249
2377.00000    0.05257
2377.50000    0.05423
2378.00000    0.05753
2378.50000    0.06242
2379.00000    0.06870
2379.50000    0.07612
2380.00000    0.08427
2380.50000    0.09274
2381.00000    0.10101
2381.50000    0.10860
2382.00000    0.11500
2382.50000    0.11977
2383.00000    0.12250
2383.50000    0.12289
2384.00000    0.12073
2384.50000    0.11593
2385.00000    0.10848
2385.50000    0.09850
2386.00000    0.08621
2386.50000    0.07189
2387.00000    0.05592
2387.50000    0.03867
2388.00000    0.02058
2388.50000    0.00206
2389.00000   -0.01650
2389.50000   -0.03474
2390.00000   -0.05235
2390.50000   -0.06910
2391.00000   -0.08477
2391.50000   -0.09923
2392.00000   -0.11240
2392.50000   -0.12422
2393.00000   -0.13464
2393.50000   -0.14366
2394.00000   -0.15122
2394.50000   -0.15727
2395.00000   -0.16173
2395.50000   -0.16449
2396.00000   -0.16538
2396.50000   -0.16421
2397.00000   -0.16076
2397.50000   -0.15481
2398.00000   -0.14610
2398.50000   -0.13443
2399.00000   -0.11961
2399.50000   -0.10151
2400.00000   -0.08005
2400.50000   -0.05524
2401.00000   -0.02720
2401.50000    0.00390
2402.00000    0.03774
2402.50000    0.07396
2403.00000    0.11209
2403.50000    0.15159
2404.00000    0.19188
2404.50000    0.23234
2405.00000    0.27234
2405.50000    0.31124
2406.00000    0.34844
2406.50000    0.38338
2407.00000    0.41557
2407.50000    0.44457
2408.00000    0.47003
2408.50000    0.49169
2409.00000    0.50935
2409.50000    0.52292
2410.00000    0.53237
2410.50000    0.53774
2411.00000    0.53915
2411.50000    0.53673
2412.00000    0.53069
2412.50000    0.52125
2413.00000    0.50865
2413.50000    0.49314
2414.00000    0.47499
2414.50000    0.45447
2415.00000    0.43184
2415.50000    0.40737
2416.00000    0.38131
2416.50000    0.35392
2417.00000    0.32546
2417.50000    0.29616
2418.00000    0.26627
2418.50000    0.23602
2419.00000    0.20564
2419.50000    0.17533
2420.00000    0.14532
2420.50000    0.11577
2421.00000    0.08685
2421.50000    0.05872
2422.00000    0.03150
2422.50000    0.00530
2423.00000   -0.01980
2423.50000   -0.04373
2424.00000   -0.06641
2424.50000   -0.08781
2425.00000   -0.10786
2425.50000   -0.12649
2426.00000   -0.14364
2426.50000   -0.15918
2427.00000   -0.17301
2427.50000   -0.18494
2428.00000   -0.19481
2428.50000   -0.20238
2429.00000   -0.20742
2429.50000   -0.20968
2430.00000   -0.20890
2430.50000   -0.20484
2431.00000   -0.19729
2431.50000   -0.18606
2432.00000   -0.17107
2432.50000   -0.15226
2433.00000   -0.12969
2433.50000   -0.10351
2434.00000   -0.07397
2434.50000   -0.04142
2435.00000   -0.00632
2435.50000    0.03081
2436.00000    0.06935
2436.50000    0.10864
2437.00000    0.14798
2437.50000    0.18667
2438.00000    0.22403
2438.50000    0.25940
2439.00000    0.29222
2439.50000    0.32198
2440.00000    0.34829
2440.50000    0.37086
2441.00000    0.38952
2441.50000    0.40421
2442.00000    0.41499
2442.50000    0.42200
2443.00000    0.42548
2443.50000    0.42574
2444.00000    0.42313
2444.50000    0.41801
2445.00000    0.41077
2445.50000    0.40176
2446.00000    0.39133
2446.50000    0.37975
2447.00000    0.36726
2447.50000    0.35404
2448.00000    0.34020
2448.50000    0.32580
2449.00000    0.31083
2449.50000    0.29527
2450.00000    0.27904
2450.50000    0.26204
2451.00000    0.24417
2451.50000    0.22532
2452.00000    0.20541
2452.50000    0.18437
2453.00000    0.16216
2453.50000    0.13878
2454.00000    0.11427
2454.50000    0.08870
2455.00000    0.06221
2455.50000    0.03495
2456.00000    0.00712
2456.50000   -0.02104
2457.00000   -0.04929
2457.50000   -0.07732
2458.00000   -0.10484
2458.50000   -0.13154
2459.00000   -0.15711
2459.50000   -0.18124
2460.00000   -0.20363
2460.50000   -0.22399
2461.00000   -0.24208
2461.50000   -0.25767
2462.00000   -0.27060
2462.50000   -0.28072
2463.00000   -0.28796
2463.50000   -0.29230
2464.00000   -0.29377
2464.50000   -0.29246
2465.00000   -0.28852
2465.50000   -0.28214
2466.00000   -0.27357
2466.50000   -0.26308
2467.00000   -0.25097
2467.50000   -0.23755
2468.00000   -0.22312
2468.50000   -0.20799
2469.00000   -0.19241
2469.50000   -0.17661
2470.00000   -0.16077
2470.50000   -0.14503
2471.00000   -0.12944
2471.50000   -0.11404
2472.00000   -0.09879
2472.50000   -0.08360
2473.00000   -0.06837
2473.50000   -0.05297
2474.00000   -0.03725
2474.50000   -0.02109
2475.00000   -0.00437
2475.50000    0.01297
2476.00000    0.03095
2476.50000    0.04955
2477.00000    0.06864
2477.50000    0.08808
2478.00000    0.10761
2478.50000    0.12696
2479.00000    0.14578
2479.50000    0.16369
2480.00000    0.18030
2480.50000    0.19520
2481.00000    0.20800
2481.50000    0.21834
2482.00000    0.22592
2482.50000    0.23050
2483.00000    0.23190
2483.50000    0.23004
2484.00000    0.22494
2484.50000    0.21670
2485.00000    0.20553
2485.50000    0.19169
2486.00000    0.17556
2486.50000    0.15756
2487.00000    0.13815
2487.50000    0.11786
2488.00000    0.09721
2488.50000    0.07671
2489.00000    0.05688
2489.50000    0.03819
2490.00000    0.02107
2490.50000    0.00587
2491.00000   -0.00711
2491.50000   -0.01763
2492.00000   -0.02557
2492.50000   -0.03085
2493.00000   -0.03349
2493.50000   -0.03357
2494.00000   -0.03123
2494.50000   -0.02667
2495.00000   -0.02014
2495.50000   -0.01190
2496.00000   -0.00225
2496.50000    0.00852
2497.00000    0.02012
2497.50000    0.03227
2498.00000    0.04472
2498.50000    0.05726
2499.00000    0.06971
2499.50000    0.08192
2500.00000    0.09379
2500.50000    0.10526
2501.00000    0.11631
2501.50000    0.12692
2502.00000    0.13713
2502.50000    0.14696
2503.00000    0.15645
2503.50000    0.16564
2504.00000    0.17454
2504.50000    0.18315
2505.00000    0.19143
2505.50000    0.19932
2506.00000    0.20671
2506.50000    0.21346
2507.00000    0.21937
2507.50000    0.22425
2508.00000    0.22783
2508.50000    0.22985
2509.00000    0.23002
2509.50000    0.22805
2510.00000    0.22367
2510.50000    0.21661
2511.00000    0.20665
2511.50000    0.19358
2512.00000    0.17727
2512.50000    0.15766
2513.00000    0.13471
2513.50000    0.10852
2514.00000    0.07921
2514.50000    0.04702
2515.00000    0.01224
2515.50000   -0.02474
2516.00000   -0.06348
2516.50000   -0.10346
2517.00000   -0.14411
2517.50000   -0.18483
2518.00000   -0.22499
2518.50000   -0.26393
2519.00000   -0.30100
2519.50000   -0.33556
2520.00000   -0.36701
2520.50000   -0.39479
2521.00000   -0.41840
2521.50000   -0.43741
2522.00000   -0.45148
2522.50000   -0.46036
2523.00000   -0.46389
2523.50000   -0.46205
2524.00000   -0.45487
2524.50000   -0.44254
2525.00000   -0.42532
2525.50000   -0.40356
2526.00000   -0.37770
2526.50000   -0.34826
2527.00000   -0.31579
2527.50000   -0.28090
2528.00000   -0.24421
2528.50000   -0.20634
2529.00000   -0.16790
2529.50000   -0.12948
2530.00000   -0.09159
2530.50000   -0.05472
2531.00000   -0.01925
2531.50000    0.01448
2532.00000    0.04623
2532.50000    0.07585
2533.00000    0.10325
2533.50000    0.12843
2534.00000    0.15142
2534.50000    0.17233
2535.00000    0.19129
2535.50000    0.20848
2536.00000    0.22403
2536.50000    0.23813
2537.00000    0.25089
2537.50000    0.26243
2538.00000    0.27280
2538.50000    0.28202
2539.00000    0.29005
2539.50000    0.29682
2540.00000    0.30218
2540.50000    0.30598
2541.00000    0.30800
2541.50000    0.30802
2542.00000    0.30582
2542.50000    0.30118
2543.00000    0.29388
2543.50000    0.28377
2544.00000    0.27071
2544.50000    0.25463
2545.00000    0.23554
2545.50000    0.21350
2546.00000    0.18866
2546.50000    0.16124
2547.00000    0.13154
2547.50000    0.09992
2548.00000    0.06683
2548.50000    0.03275
2549.00000   -0.00178
2549.50000   -0.03622
2550.00000   -0.06997
2550.50000   -0.10249
2551.00000   -0.13322
2551.50000   -0.16165
2552.00000   -0.18733
2552.50000   -0.20988
2553.00000   -0.22899
2553.50000   -0.24448
2554.00000   -0.25621
2554.50000   -0.26420
2555.00000   -0.26855
2555.50000   -0.26944
2556.00000   -0.26717
2556.50000   -0.26209
2557.00000   -0.25463
2557.50000   -0.24525
2558.00000   -0.23442
2558.50000   -0.22263
2559.00000   -0.21034
2559.50000   -0.19796
2560.00000   -0.18587
2560.50000   -0.17435
2561.00000   -0.16363
2561.50000   -0.15386
2562.00000   -0.14509
2562.50000   -0.13731
2563.00000   -0.13047
2563.50000   -0.12443
2564.00000   -0.11905
2564.50000   -0.11416
2565.00000   -0.10960
2565.50000   -0.10521
2566.00000   -0.10087
2566.50000   -0.09649
2567.00000   -0.09204
2567.50000   -0.08752
2568.00000   -0.08297
2568.50000   -0.07846
2569.00000   -0.07410
2569.50000   -0.06999
2570.00000   -0.06622
2570.50000   -0.06287
2571.00000   -0.05998
2571.50000   -0.05754
2572.00000   -0.05549
2572.50000   -0.05372
2573.00000   -0.05204
2573.50000   -0.05023
2574.00000   -0.04803
2574.50000   -0.04515
2575.00000   -0.04128
2575.50000   -0.03613
2576.00000   -0.02945
2576.50000   -0.02100
2577.00000   -0.01063
2577.50000    0.00174
2578.00000    0.01612
2578.50000    0.03244
2579.00000    0.05052
2579.50000    0.07014
2580.00000    0.09099
2580.50000    0.11269
2581.00000    0.13485
2581.50000    0.15704
2582.00000    0.17882
2582.50000    0.19979
2583.00000    0.21954
2583.50000    0.23773
2584.00000    0.25403
2584.50000    0.26821
2585.00000    0.28008
2585.50000    0.28950
2586.00000    0.29640
2586.50000    0.30077
2587.00000    0.30263
2587.50000    0.30207
2588.00000    0.29918
2588.50000    0.29410
2589.00000    0.28698
2589.50000    0.27799
2590.00000    0.26729
2590.50000    0.25507
2591.00000    0.24148
2591.50000    0.22669
2592.00000    0.21086
2592.50000    0.19413
2593.00000    0.17663
2593.50000    0.15846
2594.00000    0.13972
2594.50000    0.12049
2595.00000    0.10083
2595.50000    0.08077
2596.00000    0.06035
2596.50000    0.03957
2597.00000    0.01843
2597.50000   -0.00304
2598.00000   -0.02486
2598.50000   -0.04700
2599.00000   -0.06942
2599.50000   -0.09204
2600.00000   -0.11477
2600.50000   -0.13745
2601.00000   -0.15988
2601.50000   -0.18180
2602.00000   -0.20292
2602.50000   -0.22288
2603.00000   -0.24130
2603.50000   -0.25777
2604.00000   -0.27185
2604.50000   -0.28313
2605.00000   -0.29121
2605.50000   -0.29572
2606.00000   -0.29639
2606.50000   -0.29300
2607.00000   -0.28543
2607.50000   -0.27370
2608.00000   -0.25792
2608.50000   -0.23833
2609.00000   -0.21528
2609.50000   -0.18926
2610.00000   -0.16083
2610.50000   -0.13065
2611.00000   -0.09942
2611.50000   -0.06789
2612.00000   -0.03682
2612.50000   -0.00692
2613.00000    0.02111
2613.50000    0.04667
2614.00000    0.06923
2614.50000    0.08840
2615.00000    0.10388
2615.50000    0.11550
2616.00000    0.12324
2616.50000    0.12718
2617.00000    0.12752
2617.50000    0.12455
2618.00000    0.11864
2618.50000    0.11022
2619.00000    0.09976
2619.50000    0.08774
2620.00000    0.07464
2620.50000    0.06090
2621.00000    0.04694
2621.50000    0.03313
2622.00000    0.01978
2622.50000    0.00713
2623.00000   -0.00464
2623.50000   -0.01540
2624.00000   -0.02508
2624.50000   -0.03367
2625.00000   -0.04119
2625.50000   -0.04769
2626.00000   -0.05323
2626.50000   -0.05791
2627.00000   -0.06182
2627.50000   -0.06504
2628.00000   -0.06766
2628.50000   -0.06975
2629.00000   -0.07136
2629.50000   -0.07253
2630.00000   -0.07329
2630.50000   -0.07366
2631.00000   -0.07361
2631.50000   -0.07314
2632.00000   -0.07220
2632.50000   -0.07076
2633.00000   -0.06875
2633.50000   -0.06611
2634.00000   -0.06276
2634.50000   -0.05864
2635.00000   -0.05365
2635.50000   -0.04772
2636.00000   -0.04074
2636.50000   -0.03264
2637.00000   -0.02333
2637.50000   -0.01272
2638.00000   -0.00073
2638.50000    0.01272
2639.00000    0.02770
2639.50000    0.04429
2640.00000    0.06256
2640.50000    0.08258
2641.00000    0.10441
2641.50000    0.12813
2642.00000    0.15380
2642.50000    0.18148
2643.00000    0.21124
2643.50000    0.24313
2644.00000    0.27722
2644.50000    0.31355
2645.00000    0.35215
2645.50000    0.39305
2646.00000    0.43626
2646.50000    0.48180
2647.00000    0.52964
2647.50000    0.57979
2648.00000    0.63223
2648.50000    0.68696
2649.00000    0.74398
2649.50000    0.80333
2650.00000    0.86506
2650.50000    0.92929
2651.00000    0.99616
2651.50000    1.06586
2652.00000    1.13866
2652.50000    1.21487
2653.00000    1.29482
2653.50000    1.37892
2654.00000    1.46759
2654.50000    1.56125
2655.00000    1.66032
2655.50000    1.76521
2656.00000    1.87627
2656.50000    1.99378
2657.00000    2.11795
2657.50000    2.24890
2658.00000    2.38666
2658.50000    2.53113
2659.00000    2.68213
2659.50000    2.83937
2660.00000    3.00250
2660.50000    3.17108
2661.00000    3.34463
2661.50000    3.52263
2662.00000    3.70456
2662.50000    3.88991
2663.00000    4.07819
2663.50000    4.26894
2664.00000    4.46176
2664.50000    4.65630
2665.00000    4.85225
2665.50000    5.04937
2666.00000    5.24743
2666.50000    5.44626
2667.00000    5.64568
2667.50000    5.84552
2668.00000    6.04561
2668.50000    6.24573
2669.00000    6.44565
2669.50000    6.64509
2670.00000    6.84372
2670.50000    7.04115
2671.00000    7.23698
2671.50000    7.43072
2672.00000    7.62187
2672.50000    7.80989
2673.00000    7.99422
2673.50000    8.17426
2674.00000    8.34941
2674.50000    8.51907
2675.00000    8.68261
2675.50000    8.83942
2676.00000    8.98887
2676.50000    9.13035
2677.00000    9.26324
2677.50000    9.38693
2678.00000    9.50082
2678.50000    9.60432
2679.00000    9.69689
2679.50000    9.77797
2680.00000    9.84709
2680.50000    9.90379
2681.00000    9.94770
2681.50000    9.97851
2682.00000    9.99599
2682.50000   10.00000
2683.00000    9.99050
2683.50000    9.96755
2684.00000    9.93131
2684.50000    9.88204
2685.00000    9.82009
2685.50000    9.74590
2686.00000    9.65998
2686.50000    9.56291
2687.00000    9.45532
2687.50000    9.33789
2688.00000    9.21130
2688.50000    9.07626
2689.00000    8.93350
2689.50000    8.78371
2690.00000    8.62760
2690.50000    8.46585
2691.00000    8.29911
2691.50000    8.12802
2692.00000    7.95318
2692.50000    7.77518
2693.00000    7.59458
2693.50000    7.41189
2694.00000    7.22761
2694.50000    7.04221
2695.00000    6.85613
2695.50000    6.66978
2696.00000    6.48353
2696.50000    6.29773
2697.00000    6.11269
2697.50000    5.92869
2698.00000    5.74597
2698.50000    5.56477
2699.00000    5.38528
2699.50000    5.20768
2700.00000    5.03213
2700.50000    4.85879
2701.00000    4.68779
2701.50000    4.51928
2702.00000    4.35342
2702.50000    4.19036
2703.00000    4.03026
2703.50000    3.87331
2704.00000    3.71968
2704.50000    3.56957
2705.00000    3.42317
2705.50000    3.28069
2706.00000    3.14232
2706.50000    3.00823
2707.00000    2.87859
2707.50000    2.75353
2708.00000    2.63319
2708.50000    2.51764
2709.00000    2.40694
2709.50000    2.30111
2710.00000    2.20017
2710.50000    2.10407
2711.00000    2.01277
2711.50000    1.92618
2712.00000    1.84421
2712.50000    1.76673
2713.00000    1.69363
2713.50000    1.62474
2714.00000    1.55990
2714.50000    1.49892
2715.00000    1.44161
2715.50000    1.38774
2716.00000    1.33706
2716.50000    1.28930
2717.00000    1.24415
2717.50000    1.20130
2718.00000    1.16039
2718.50000    1.12108
2719.00000    1.08299
2719.50000    1.04575
2720.00000    1.00901
2720.50000    0.97244
2721.00000    0.93575
2721.50000    0.89868
2722.00000    0.86104
2722.50000    0.82272
2723.00000    0.78365
2723.50000    0.74385
2724.00000    0.70339
2724.50000    0.66244
2725.00000    0.62118
2725.50000    0.57986
2726.00000    0.53875
2726.50000    0.49813
2727.00000    0.45827
2727.50000    0.41945
2728.00000    0.38189
2728.50000    0.34582
2729.00000    0.31139
2729.50000    0.27873
2730.00000    0.24792
2730.50000    0.21902
2731.00000    0.19206
2731.50000    0.16706
2732.00000    0.14402
2732.50000    0.12297
2733.00000    0.10391
2733.50000    0.08691
2734.00000    0.07200
2734.50000    0.05924
2735.00000    0.04871
2735.50000    0.04047
2736.00000    0.03454
2736.50000    0.03093
2737.00000    0.02960
2737.50000    0.03043
2738.00000    0.03325
2738.50000    0.03781
2739.00000    0.04377
2739.50000    0.05075
2740.00000    0.05829
2740.50000    0.06589
2741.00000    0.07304
2741.50000    0.07920
2742.00000    0.08387
2742.50000    0.08661
2743.00000    0.08701
2743.50000    0.08477
2744.00000    0.07968
2744.50000    0.07162
2745.00000    0.06059
2745.50000    0.04669
2746.00000    0.03010
2746.50000    0.01110
2747.00000   -0.00998
2747.50000   -0.03276
2748.00000   -0.05683
2748.50000   -0.08177
2749.00000   -0.10715
2749.50000   -0.13257
2750.00000   -0.15766
2750.50000   -0.18204
2751.00000   -0.20541
2751.50000   -0.22744
2752.00000   -0.24787
2752.50000   -0.26641
2753.00000   -0.28282
2753.50000   -0.29683
2754.00000   -0.30819
2754.50000   -0.31664
2755.00000   -0.32194
2755.50000   -0.32383
2756.00000   -0.32210
2756.50000   -0.31653
2757.00000   -0.30697
2757.50000   -0.29330
2758.00000   -0.27549
2758.50000   -0.25356
2759.00000   -0.22763
2759.50000   -0.19791
2760.00000   -0.16471
2760.50000   -0.12840
2761.00000   -0.08948
2761.50000   -0.04848
2762.00000   -0.00600
2762.50000    0.03730
2763.00000    0.08078
2763.50000    0.12376
2764.00000    0.16561
2764.50000    0.20573
2765.00000    0.24357
2765.50000    0.27866
2766.00000    0.31062
2766.50000    0.33916
2767.00000    0.36406
2767.50000    0.38521
2768.00000    0.40261
2768.50000    0.41631
2769.00000    0.42645
2769.50000    0.43322
2770.00000    0.43684
2770.50000    0.43759
2771.00000    0.43572
2771.50000    0.43151
2772.00000    0.42520
2772.50000    0.41701
2773.00000    0.40712
2773.50000    0.39568
2774.00000    0.38279
2774.50000    0.36848
2775.00000    0.35279
2775.50000    0.33570
2776.00000    0.31719
2776.50000    0.29720
2777.00000    0.27570
2777.50000    0.25268
2778.00000    0.22814
2778.50000    0.20213
2779.00000    0.17473
2779.50000    0.14609
2780.00000    0.11642
2780.50000    0.08595
2781.00000    0.05500
2781.50000    0.02392
2782.00000   -0.00692
2782.50000   -0.03709
2783.00000   -0.06617
2783.50000   -0.09372
2784.00000   -0.11932
2784.50000   -0.14253
2785.00000   -0.16300
2785.50000   -0.18036
2786.00000   -0.19431
2786.50000   -0.20460
2787.00000   -0.21104
2787.50000   -0.21350
2788.00000   -0.21191
2788.50000   -0.20627
2789.00000   -0.19668
2789.50000   -0.18326
2790.00000   -0.16625
2790.50000   -0.14593
2791.00000   -0.12267
2791.50000   -0.09688
2792.00000   -0.06904
2792.50000   -0.03967
2793.00000   -0.00933
2793.50000    0.02141
2794.00000    0.05198
2794.50000    0.08179
2795.00000    0.11032
2795.50000    0.13706
2796.00000    0.16157
2796.50000    0.18350
2797.00000    0.20254
2797.50000    0.21850
2798.00000    0.23128
2798.50000    0.24085
2799.00000    0.24727
2799.50000    0.25070
2800.00000    0.25133
2800.50000    0.24941
2801.00000    0.24522
2801.50000    0.23907
2802.00000    0.23126
2802.50000    0.22208
2803.00000    0.21180
2803.50000    0.20065
2804.00000    0.18881
2804.50000    0.17645
2805.00000    0.16368
2805.50000    0.15056
2806.00000    0.13714
2806.50000    0.12344
2807.00000    0.10945
2807.50000    0.09515
2808.00000    0.08052
2808.50000    0.06553
2809.00000    0.05016
2809.50000    0.03439
2810.00000    0.01820
2810.50000    0.00156
2811.00000   -0.01552
2811.50000   -0.03306
2812.00000   -0.05108
2812.50000   -0.06957
2813.00000   -0.08853
2813.50000   -0.10795
2814.00000   -0.12781
2814.50000   -0.14804
2815.00000   -0.16856
2815.50000   -0.18924
2816.00000   -0.20992
2816.50000   -0.23038
2817.00000   -0.25032
2817.50000   -0.26944
2818.00000   -0.28733
2818.50000   -0.30360
2819.00000   -0.31777
2819.50000   -0.32940
2820.00000   -0.33802
2820.50000   -0.34319
2821.00000   -0.34454
2821.50000   -0.34174
2822.00000   -0.33455
2822.50000   -0.32287
2823.00000   -0.30666
2823.50000   -0.28605
2824.00000   -0.26128
2824.50000   -0.23269
2825.00000   -0.20077
2825.50000   -0.16608
2826.00000   -0.12925
2826.50000   -0.09098
2827.00000   -0.05198
2827.50000   -0.01297
2828.00000    0.02538
2828.50000    0.06240
2829.00000    0.09755
2829.50000    0.13031
2830.00000    0.16030
2830.50000    0.18720
2831.00000    0.21080
2831.50000    0.23099
2832.00000    0.24772
2832.50000    0.26101
2833.00000    0.27096
2833.50000    0.27768
2834.00000    0.28135
2834.50000    0.28214
2835.00000    0.28025
2835.50000    0.27588
2836.00000    0.26922
2836.50000    0.26050
2837.00000    0.24990
2837.50000    0.23763
2838.00000    0.22391
2838.50000    0.20895
2839.00000    0.19298
2839.50000    0.17623
2840.00000    0.15895
2840.50000    0.14137
2841.00000    0.12377
2841.50000    0.10637
2842.00000    0.08942
2842.50000    0.07315
2843.00000    0.05774
2843.50000    0.04337
2844.00000    0.03018
2844.50000    0.01827
2845.00000    0.00771
2845.50000   -0.00149
2846.00000   -0.00932
2846.50000   -0.01583
2847.00000   -0.02108
2847.50000   -0.02516
2848.00000   -0.02818
2848.50000   -0.03024
2849.00000   -0.03149
2849.50000   -0.03204
2850.00000   -0.03205
2850.50000   -0.03164
2851.00000   -0.03096
2851.50000   -0.03017
2852.00000   -0.02939
2852.50000   -0.02880
2853.00000   -0.02855
2853.50000   -0.02879
2854.00000   -0.02968
2854.50000   -0.03136
2855.00000   -0.03397
2855.50000   -0.03764
2856.00000   -0.04245
2856.50000   -0.04848
2857.00000   -0.05576
2857.50000   -0.06428
2858.00000   -0.07399
2858.50000   -0.08479
2859.00000   -0.09654
2859.50000   -0.10904
2860.00000   -0.12206
2860.50000   -0.13533
2861.00000   -0.14854
2861.50000   -0.16138
2862.00000   -0.17348
2862.50000   -0.18452
2863.00000   -0.19413
2863.50000   -0.20199
2864.00000   -0.20779
2864.50000   -0.21124
2865.00000   -0.21212
2865.50000   -0.21024
2866.00000   -0.20546
2866.50000   -0.19772
2867.00000   -0.18701
2867.50000   -0.17340
2868.00000   -0.15703
2868.50000   -0.13813
2869.00000   -0.11696
2869.50000   -0.09388
2870.00000   -0.06930
2870.50000   -0.04366
2871.00000   -0.01745
2871.50000    0.00882
2872.00000    0.03465
2872.50000    0.05953
2873.00000    0.08301
2873.50000    0.10466
2874.00000    0.12415
2874.50000    0.14119
2875.00000    0.15561
2875.50000    0.16733
2876.00000    0.17636
2876.50000    0.18282
2877.00000    0.18691
2877.50000    0.18892
2878.00000    0.18918
2878.50000    0.18809
2879.00000    0.18606
2879.50000    0.18348
2880.00000    0.18075
2880.50000    0.17819
2881.00000    0.17606
2881.50000    0.17455
2882.00000    0.17374
2882.50000    0.17360
2883.00000    0.17403
2883.50000    0.17479
2884.00000    0.17559
2884.50000    0.17606
2885.00000    0.17578
2885.50000    0.17430
2886.00000    0.17118
2886.50000    0.16600
2887.00000    0.15840
2887.50000    0.14807
2888.00000    0.13481
2888.50000    0.11851
2889.00000    0.09921
2889.50000    0.07702
2890.00000    0.05221
2890.50000    0.02514
2891.00000   -0.00370
2891.50000   -0.03376
2892.00000   -0.06440
2892.50000   -0.09494
2893.00000   -0.12467
2893.50000   -0.15288
2894.00000   -0.17888
2894.50000   -0.20205
2895.00000   -0.22182
2895.50000   -0.23773
2896.00000   -0.24942
2896.50000   -0.25667
2897.00000   -0.25940
2897.50000   -0.25767
2898.00000   -0.25168
2898.50000   -0.24180
2899.00000   -0.22849
2899.50000   -0.21236
2900.00000   -0.19411
2900.50000   -0.17451
2901.00000   -0.15435
2901.50000   -0.13445
2902.00000   -0.11561
2902.50000   -0.09853
2903.00000   -0.08387
2903.50000   -0.07211
2904.00000   -0.06363
2904.50000   -0.05861
2905.00000   -0.05707
2905.50000   -0.05885
2906.00000   -0.06362
2906.50000   -0.07088
2907.00000   -0.08002
2907.50000   -0.09032
2908.00000   -0.10098
2908.50000   -0.11120
2909.00000   -0.12018
2909.50000   -0.12720
2910.00000   -0.13162
2910.50000   -0.13292
2911.00000   -0.13075
2911.50000   -0.12494
2912.00000   -0.11548
2912.50000   -0.10253
2913.00000   -0.08643
2913.50000   -0.06766
2914.00000   -0.04680
2914.50000   -0.02453
2915.00000   -0.00155
2915.50000    0.02141
2916.00000    0.04369
2916.50000    0.06465
2917.00000    0.08379
2917.50000    0.10071
2918.00000    0.11511
2918.50000    0.12687
2919.00000    0.13598
2919.50000    0.14254
2920.00000    0.14677
2920.50000    0.14896
2921.00000    0.14947
2921.50000    0.14867
2922.00000    0.14695
2922.50000    0.14468
2923.00000    0.14219
2923.50000    0.13974
2924.00000    0.13756
2924.50000    0.13578
2925.00000    0.13446
2925.50000    0.13361
2926.00000    0.13318
2926.50000    0.13307
2927.00000    0.13315
2927.50000    0.13330
2928.00000    0.13337
2928.50000    0.13324
2929.00000    0.13281
2929.50000    0.13200
2930.00000    0.13078
2930.50000    0.12914
2931.00000    0.12711
2931.50000    0.12473
2932.00000    0.12205
2932.50000    0.11912
2933.00000    0.11598
2933.50000    0.11267
2934.00000    0.10916
2934.50000    0.10543
2935.00000    0.10142
2935.50000    0.09702
2936.00000    0.09214
2936.50000    0.08664
2937.00000    0.08042
2937.50000    0.07336
2938.00000    0.06541
2938.50000    0.05654
2939.00000    0.04677
2939.50000    0.03618
2940.00000    0.02493
2940.50000    0.01321
2941.00000    0.00128
2941.50000   -0.01056
2942.00000   -0.02199
2942.50000   -0.03269
2943.00000   -0.04232
2943.50000   -0.05060
2944.00000   -0.05727
2944.50000   -0.06215
2945.00000   -0.06512
2945.50000   -0.06612
2946.00000   -0.06519
2946.50000   -0.06244
2947.00000   -0.05804
2947.50000   -0.05223
2948.00000   -0.04527
2948.50000   -0.03748
2949.00000   -0.02916
2949.50000   -0.02064
2950.00000   -0.01221
2950.50000   -0.00414
2951.00000    0.00335
2951.50000    0.01006
2952.00000    0.01586
2952.50000    0.02064
2953.00000    0.02436
2953.50000    0.02700
2954.00000    0.02859
2954.50000    0.02916
2955.00000    0.02880
2955.50000    0.02758
2956.00000    0.02559
2956.50000    0.02290
2957.00000    0.01961
2957.50000    0.01576
2958.00000    0.01143
2958.50000    0.00662
2959.00000    0.00137
2959.50000   -0.00433
2960.00000   -0.01050
2960.50000   -0.01718
2961.00000   -0.02441
2961.50000   -0.03224
2962.00000   -0.04070
2962.50000   -0.04983
2963.00000   -0.05965
2963.50000   -0.07014
2964.00000   -0.08125
2964.50000   -0.09292
2965.00000   -0.10503
2965.50000   -0.11742
2966.00000   -0.12992
2966.50000   -0.14232
2967.00000   -0.15439
2967.50000   -0.16590
2968.00000   -0.17660
2968.50000   -0.18628
2969.00000   -0.19473
2969.50000   -0.20180
2970.00000   -0.20733
2970.50000   -0.21125
2971.00000   -0.21348
2971.50000   -0.21402
2972.00000   -0.21286
2972.50000   -0.21003
2973.00000   -0.20557
2973.50000   -0.19951
2974.00000   -0.19187
2974.50000   -0.18268
2975.00000   -0.17192
2975.50000   -0.15958
2976.00000   -0.14562
2976.50000   -0.13001
2977.00000   -0.11270
2977.50000   -0.09371
2978.00000   -0.07305
2978.50000   -0.05081
2979.00000   -0.02713
2979.50000   -0.00223
2980.00000    0.02361
2980.50000    0.05003
2981.00000    0.07658
2981.50000    0.10279
2982.00000    0.12815
2982.50000    0.15212
2983.00000    0.17419
2983.50000    0.19388
2984.00000    0.21077
2984.50000    0.22451
2985.00000    0.23486
2985.50000    0.24168
2986.00000    0.24493
2986.50000    0.24467
2987.00000    0.24108
2987.50000    0.23439
2988.00000    0.22493
2988.50000    0.21305
2989.00000    0.19912
2989.50000    0.18352
2990.00000    0.16661
2990.50000    0.14871
2991.00000    0.13012
2991.50000    0.11106
2992.00000    0.09171
2992.50000    0.07221
2993.00000    0.05263
2993.50000    0.03304
2994.00000    0.01346
2994.50000   -0.00612
2995.00000   -0.02569
2995.50000   -0.04527
2996.00000   -0.06485
2996.50000   -0.08444
2997.00000   -0.10404
2997.50000   -0.12364
2998.00000   -0.14325
2998.50000   -0.16285
2999.00000   -0.18244
2999.50000   -0.20203
