1200.50000   -0.07265
1201.00000   -0.07047
1201.50000   -0.06833
1202.00000   -0.06627
1202.50000   -0.06432
1203.00000   -0.06255
1203.50000   -0.06101
1204.00000   -0.05972
1204.50000   -0.05874
1205.00000   -0.05806
1205.50000   -0.05768
1206.00000   -0.05756
1206.50000   -0.05765
1207.00000   -0.05786
1207.50000   -0.05808
1208.00000   -0.05819
1208.50000   -0.05805
1209.00000   -0.05752
1209.50000   -0.05644
1210.00000   -0.05469
1210.50000   -0.05212
1211.00000   -0.04864
1211.50000   -0.04417
1212.00000   -0.03865
1212.50000   -0.03206
1213.00000   -0.02442
1213.50000   -0.01578
1214.00000   -0.00620
1214.50000    0.00420
1215.00000    0.01529
1215.50000    0.02693
1216.00000    0.03896
1216.50000    0.05120
1217.00000    0.06347
1217.50000    0.07560
1218.00000    0.08743
1218.50000    0.09879
1219.00000    0.10953
1219.50000    0.11951
1220.00000    0.12861
1220.50000    0.13671
1221.00000    0.14372
1221.50000    0.14955
1222.00000    0.15413
1222.50000    0.15738
1223.00000    0.15925
1223.50000    0.15971
1224.00000    0.15870
1224.50000    0.15622
1225.00000    0.15225
1225.50000    0.14680
1226.00000    0.13988
1226.50000    0.13156
1227.00000    0.12187
1227.50000    0.11092
1228.00000    0.09880
1228.50000    0.08565
1229.00000    0.07162
1229.50000    0.05687
1230.00000    0.04160
1230.50000    0.02601
1231.00000    0.01030
1231.50000   -0.00532
1232.00000   -0.02064
1232.50000   -0.03544
1233.00000   -0.04955
1233.50000   -0.06279
1234.00000   -0.07501
1234.50000   -0.08607
1235.00000   -0.09587
1235.50000   -0.10435
1236.00000   -0.11146
1236.50000   -0.11717
1237.00000   -0.12149
1237.50000   -0.12445
1238.00000   -0.12610
1238.50000   -0.12649
1239.00000   -0.12570
1239.50000   -0.12381
1240.00000   -0.12091
1240.50000   -0.11707
1241.00000   -0.11239
1241.50000   -0.10694
1242.00000   -0.10079
1242.50000   -0.09403
1243.00000   -0.08671
1243.50000   -0.07889
1244.00000   -0.07063
1244.50000   -0.06197
1245.00000   -0.05295
1245.50000   -0.04362
1246.00000   -0.03401
1246.50000   -0.02415
1247.00000   -0.01408
1247.50000   -0.00381
1248.00000    0.00661
1248.50000    0.01718
1249.00000    0.02788
1249.50000    0.03868
1250.00000    0.04957
1250.50000    0.06054
1251.00000    0.07157
1251.50000    0.08263
1252.00000    0.09371
1252.50000    0.10478
1253.00000    0.11578
1253.50000    0.12669
1254.00000    0.13741
1254.50000    0.14787
1255.00000    0.15798
1255.50000    0.16761
1256.00000    0.17662
1256.50000    0.18487
1257.00000    0.19218
1257.50000    0.19839
1258.00000    0.20330
1258.50000    0.20674
1259.00000    0.20852
1259.50000    0.20848
1260.00000    0.20646
1260.50000    0.20235
1261.00000    0.19604
1261.50000    0.18748
1262.00000    0.17665
1262.50000    0.16358
1263.00000    0.14834
1263.50000    0.13105
1264.00000    0.11189
1264.50000    0.09107
1265.00000    0.06884
1265.50000    0.04550
1266.00000    0.02139
1266.50000   -0.00317
1267.00000   -0.02778
1267.50000   -0.05207
1268.00000   -0.07568
1268.50000   -0.09821
1269.00000   -0.11933
1269.50000   -0.13872
1270.00000   -0.15607
1270.50000   -0.17115
1271.00000   -0.18376
1271.50000   -0.19376
1272.00000   -0.20106
1272.50000   -0.20566
1273.00000   -0.20758
1273.50000   -0.20694
1274.00000   -0.20392
1274.50000   -0.19872
1275.00000   -0.19165
1275.50000   -0.18301
1276.00000   -0.17319
1276.50000   -0.16257
1277.00000   -0.15155
1277.50000   -0.14056
1278.00000   -0.12999
1278.50000   -0.12023
1279.00000   -0.11162
1279.50000   -0.10445
1280.00000   -0.09896
1280.50000   -0.09533
1281.00000   -0.09364
1281.50000   -0.09392
1282.00000   -0.09610
1282.50000   -0.10002
1283.00000   -0.10547
1283.50000   -0.11214
1284.00000   -0.11968
1284.50000   -0.12766
1285.00000   -0.13563
1285.50000   -0.14311
1286.00000   -0.14962
1286.50000   -0.15466
1287.00000   -0.15778
1287.50000   -0.15857
1288.00000   -0.15664
1288.50000   -0.15171
1289.00000   -0.14352
1289.50000   -0.13193
1290.00000   -0.11686
1290.50000   -0.09832
1291.00000   -0.07640
1291.50000   -0.05126
1292.00000   -0.02317
1292.50000    0.00759
1293.00000    0.04065
1293.50000    0.07558
1294.00000    0.11196
1294.50000    0.14930
1295.00000    0.18711
1295.50000    0.22490
1296.00000    0.26216
1296.50000    0.29842
1297.00000    0.33319
1297.50000    0.36603
1298.00000    0.39650
1298.50000    0.42420
1299.00000    0.44878
1299.50000    0.46990
1300.00000    0.48728
1300.50000    0.50068
1301.00000    0.50989
1301.50000    0.51477
1302.00000    0.51524
1302.50000    0.51127
1303.00000    0.50288
1303.50000    0.49018
1304.00000    0.47332
1304.50000    0.45253
1305.00000    0.42809
1305.50000    0.40037
1306.00000    0.36975
1306.50000    0.33669
1307.00000    0.30167
1307.50000    0.26521
1308.00000    0.22785
1308.50000    0.19013
1309.00000    0.15258
1309.50000    0.11572
1310.00000    0.08003
1310.50000    0.04597
1311.00000    0.01393
1311.50000   -0.01576
1312.00000   -0.04282
1312.50000   -0.06703
1313.00000   -0.08826
1313.50000   -0.10641
1314.00000   -0.12146
1314.50000   -0.13343
1315.00000   -0.14239
1315.50000   -0.14842
1316.00000   -0.15164
1316.50000   -0.15218
1317.00000   -0.15018
1317.50000   -0.14575
1318.00000   -0.13901
1318.50000   -0.13006
1319.00000   -0.11897
1319.50000   -0.10579
1320.00000   -0.09054
1320.50000   -0.07323
1321.00000   -0.05383
1321.50000   -0.03230
1322.00000   -0.00861
1322.50000    0.01731
1323.00000    0.04552
1323.50000    0.07608
1324.00000    0.10905
1324.50000    0.14450
1325.00000    0.18247
1325.50000    0.22301
1326.00000    0.26616
1326.50000    0.31197
1327.00000    0.36048
1327.50000    0.41173
1328.00000    0.46579
1328.50000    0.52271
1329.00000    0.58256
1329.50000    0.64541
1330.00000    0.71136
1330.50000    0.78047
1331.00000    0.85284
1331.50000    0.92853
1332.00000    1.00760
1332.50000    1.09007
1333.00000    1.17592
1333.50000    1.26509
1334.00000    1.35747
1334.50000    1.45285
1335.00000    1.55098
1335.50000    1.65150
1336.00000    1.75399
1336.50000    1.85794
1337.00000    1.96274
1337.50000    2.06771
1338.00000    2.17211
1338.50000    2.27513
1339.00000    2.37592
1339.50000    2.47361
1340.00000    2.56731
1340.50000    2.65615
1341.00000    2.73930
1341.50000    2.81596
1342.00000    2.88540
1342.50000    2.94699
1343.00000    3.00020
1343.50000    3.04459
1344.00000    3.07986
1344.50000    3.10581
1345.00000    3.12239
1345.50000    3.12967
1346.00000    3.12783
1346.50000    3.11716
1347.00000    3.09807
1347.50000    3.07102
1348.00000    3.03658
1348.50000    2.99533
1349.00000    2.94792
1349.50000    2.89498
1350.00000    2.83717
1350.50000    2.77510
1351.00000    2.70939
1351.50000    2.64058
1352.00000    2.56919
1352.50000    2.49567
1353.00000    2.42042
1353.50000    2.34378
1354.00000    2.26605
1354.50000    2.18745
1355.00000    2.10819
1355.50000    2.02843
1356.00000    1.94830
1356.50000    1.86793
1357.00000    1.78741
1357.50000    1.70687
1358.00000    1.62642
1358.50000    1.54619
1359.00000    1.46634
1359.50000    1.38704
1360.00000    1.30850
1360.50000    1.23092
1361.00000    1.15456
1361.50000    1.07967
1362.00000    1.00652
1362.50000    0.93539
1363.00000    0.86656
1363.50000    0.80032
1364.00000    0.73693
1364.50000    0.67664
1365.00000    0.61968
1365.50000    0.56624
1366.00000    0.51650
1366.50000    0.47058
1367.00000    0.42857
1367.50000    0.39054
1368.00000    0.35648
1368.50000    0.32638
1369.00000    0.30016
1369.50000    0.27770
1370.00000    0.25887
1370.50000    0.24347
1371.00000    0.23127
1371.50000    0.22201
1372.00000    0.21541
1372.50000    0.21113
1373.00000    0.20885
1373.50000    0.20818
1374.00000    0.20876
1374.50000    0.21019
1375.00000    0.21208
1375.50000    0.21404
1376.00000    0.21571
1376.50000    0.21672
1377.00000    0.21675
1377.50000    0.21552
1378.00000    0.21280
1378.50000    0.20838
1379.00000    0.20215
1379.50000    0.19403
1380.00000    0.18403
1380.50000    0.17219
1381.00000    0.15865
1381.50000    0.14358
1382.00000    0.12722
1382.50000    0.10983
1383.00000    0.09173
1383.50000    0.07323
1384.00000    0.05468
1384.50000    0.03639
1385.00000    0.01866
1385.50000    0.00177
1386.00000   -0.01406
1386.50000   -0.02865
1387.00000   -0.04189
1387.50000   -0.05372
1388.00000   -0.06415
1388.50000   -0.07324
1389.00000   -0.08111
1389.50000   -0.08791
1390.00000   -0.09385
1390.50000   -0.09915
1391.00000   -0.10404
1391.50000   -0.10873
1392.00000   -0.11346
1392.50000   -0.11839
1393.00000   -0.12368
1393.50000   -0.12942
1394.00000   -0.13565
1394.50000   -0.14237
1395.00000   -0.14952
1395.50000   -0.15697
1396.00000   -0.16458
1396.50000   -0.17215
1397.00000   -0.17946
1397.50000   -0.18626
1398.00000   -0.19231
1398.50000   -0.19738
1399.00000   -0.20124
1399.50000   -0.20369
1400.00000   -0.20457
1400.50000   -0.20376
1401.00000   -0.20117
1401.50000   -0.19677
1402.00000   -0.19058
1402.50000   -0.18266
1403.00000   -0.17311
1403.50000   -0.16207
1404.00000   -0.14971
1404.50000   -0.13624
1405.00000   -0.12187
1405.50000   -0.10683
1406.00000   -0.09137
1406.50000   -0.07574
1407.00000   -0.06016
1407.50000   -0.04489
1408.00000   -0.03015
1408.50000   -0.01617
1409.00000   -0.00315
1409.50000    0.00872
1410.00000    0.01926
1410.50000    0.02832
1411.00000    0.03575
1411.50000    0.04145
1412.00000    0.04533
1412.50000    0.04733
1413.00000    0.04741
1413.50000    0.04557
1414.00000    0.04183
1414.50000    0.03626
1415.00000    0.02894
1415.50000    0.02000
1416.00000    0.00957
1416.50000   -0.00218
1417.00000   -0.01505
1417.50000   -0.02883
1418.00000   -0.04332
1418.50000   -0.05827
1419.00000   -0.07346
1419.50000   -0.08866
1420.00000   -0.10365
1420.50000   -0.11819
1421.00000   -0.13209
1421.50000   -0.14514
1422.00000   -0.15715
1422.50000   -0.16795
1423.00000   -0.17735
1423.50000   -0.18520
1424.00000   -0.19133
1424.50000   -0.19558
1425.00000   -0.19781
1425.50000   -0.19785
1426.00000   -0.19558
1426.50000   -0.19084
1427.00000   -0.18352
1427.50000   -0.17353
1428.00000   -0.16077
1428.50000   -0.14522
1429.00000   -0.12686
1429.50000   -0.10575
1430.00000   -0.08197
1430.50000   -0.05570
1431.00000   -0.02714
1431.50000    0.00340
1432.00000    0.03558
1432.50000    0.06900
1433.00000    0.10319
1433.50000    0.13766
1434.00000    0.17189
1434.50000    0.20533
1435.00000    0.23746
1435.50000    0.26775
1436.00000    0.29572
1436.50000    0.32092
1437.00000    0.34300
1437.50000    0.36163
1438.00000    0.37658
1438.50000    0.38773
1439.00000    0.39500
1439.50000    0.39844
1440.00000    0.39813
1440.50000    0.39427
1441.00000    0.38709
1441.50000    0.37689
1442.00000    0.36399
1442.50000    0.34877
1443.00000    0.33157
1443.50000    0.31278
1444.00000    0.29274
1444.50000    0.27181
1445.00000    0.25030
1445.50000    0.22852
1446.00000    0.20674
1446.50000    0.18520
1447.00000    0.16413
1447.50000    0.14373
1448.00000    0.12420
1448.50000    0.10571
1449.00000    0.08844
1449.50000    0.07254
1450.00000    0.05818
1450.50000    0.04551
1451.00000    0.03466
1451.50000    0.02577
1452.00000    0.01894
1452.50000    0.01426
1453.00000    0.01177
1453.50000    0.01149
1454.00000    0.01338
1454.50000    0.01736
1455.00000    0.02331
1455.50000    0.03104
1456.00000    0.04032
1456.50000    0.05090
1457.00000    0.06246
1457.50000    0.07468
1458.00000    0.08722
1458.50000    0.09975
1459.00000    0.11192
1459.50000    0.12344
1460.00000    0.13404
1460.50000    0.14350
1461.00000    0.15166
1461.50000    0.15840
1462.00000    0.16368
1462.50000    0.16751
1463.00000    0.16996
1463.50000    0.17114
1464.00000    0.17119
1464.50000    0.17028
1465.00000    0.16859
1465.50000    0.16628
1466.00000    0.16352
1466.50000    0.16043
1467.00000    0.15711
1467.50000    0.15362
1468.00000    0.14997
1468.50000    0.14611
1469.00000    0.14196
1469.50000    0.13742
1470.00000    0.13233
1470.50000    0.12653
1471.00000    0.11985
1471.50000    0.11213
1472.00000    0.10322
1472.50000    0.09300
1473.00000    0.08140
1473.50000    0.06837
1474.00000    0.05394
1474.50000    0.03816
1475.00000    0.02115
1475.50000    0.00306
1476.00000   -0.01593
1476.50000   -0.03558
1477.00000   -0.05566
1477.50000   -0.07592
1478.00000   -0.09611
1478.50000   -0.11596
1479.00000   -0.13527
1479.50000   -0.15381
1480.00000   -0.17140
1480.50000   -0.18788
1481.00000   -0.20313
1481.50000   -0.21703
1482.00000   -0.22950
1482.50000   -0.24049
1483.00000   -0.24993
1483.50000   -0.25778
1484.00000   -0.26400
1484.50000   -0.26856
1485.00000   -0.27141
1485.50000   -0.27252
1486.00000   -0.27186
1486.50000   -0.26940
1487.00000   -0.26513
1487.50000   -0.25904
1488.00000   -0.25117
1488.50000   -0.24156
1489.00000   -0.23031
1489.50000   -0.21752
1490.00000   -0.20337
1490.50000   -0.18805
1491.00000   -0.17180
1491.50000   -0.15489
1492.00000   -0.13762
1492.50000   -0.12031
1493.00000   -0.10328
1493.50000   -0.08683
1494.00000   -0.07128
1494.50000   -0.05688
1495.00000   -0.04388
1495.50000   -0.03247
1496.00000   -0.02277
1496.50000   -0.01487
1497.00000   -0.00879
1497.50000   -0.00451
1498.00000   -0.00194
1498.50000   -0.00096
1499.00000   -0.00139
1499.50000   -0.00306
1500.00000   -0.00575
1500.50000   -0.00925
1501.00000   -0.01336
1501.50000   -0.01789
1502.00000   -0.02266
1502.50000   -0.02752
1503.00000   -0.03236
1503.50000   -0.03709
1504.00000   -0.04165
1504.50000   -0.04600
1505.00000   -0.05010
1505.50000   -0.05397
1506.00000   -0.05757
1506.50000   -0.06091
1507.00000   -0.06396
1507.50000   -0.06669
1508.00000   -0.06906
1508.50000   -0.07098
1509.00000   -0.07239
1509.50000   -0.07318
1510.00000   -0.07323
1510.50000   -0.07244
1511.00000   -0.07068
1511.50000   -0.06785
1512.00000   -0.06385
1512.50000   -0.05863
1513.00000   -0.05215
1513.50000   -0.04441
1514.00000   -0.03545
1514.50000   -0.02535
1515.00000   -0.01423
1515.50000   -0.00225
1516.00000    0.01040
1516.50000    0.02352
1517.00000    0.03686
1517.50000    0.05020
1518.00000    0.06328
1518.50000    0.07587
1519.00000    0.08775
1519.50000    0.09871
1520.00000    0.10859
1520.50000    0.11724
1521.00000    0.12456
1521.50000    0.13047
1522.00000    0.13495
1522.50000    0.13800
1523.00000    0.13963
1523.50000    0.13993
1524.00000    0.13895
1524.50000    0.13680
1525.00000    0.13359
1525.50000    0.12943
1526.00000    0.12445
1526.50000    0.11876
1527.00000    0.11248
1527.50000    0.10572
1528.00000    0.09858
1528.50000    0.09116
1529.00000    0.08355
1529.50000    0.07583
1530.00000    0.06807
1530.50000    0.06035
1531.00000    0.05272
1531.50000    0.04524
1532.00000    0.03797
1532.50000    0.03095
1533.00000    0.02423
1533.50000    0.01786
1534.00000    0.01188
1534.50000    0.00633
1535.00000    0.00125
1535.50000   -0.00332
1536.00000   -0.00734
1536.50000   -0.01078
1537.00000   -0.01360
1537.50000   -0.01578
1538.00000   -0.01728
1538.50000   -0.01809
1539.00000   -0.01819
1539.50000   -0.01756
1540.00000   -0.01623
1540.50000   -0.01418
1541.00000   -0.01147
1541.50000   -0.00813
1542.00000   -0.00423
1542.50000    0.00015
1543.00000    0.00489
1543.50000    0.00988
1544.00000    0.01497
1544.50000    0.01998
1545.00000    0.02474
1545.50000    0.02907
1546.00000    0.03278
1546.50000    0.03569
1547.00000    0.03762
1547.50000    0.03843
1548.00000    0.03800
1548.50000    0.03625
1549.00000    0.03312
1549.50000    0.02861
1550.00000    0.02277
1550.50000    0.01570
1551.00000    0.00752
1551.50000   -0.00158
1552.00000   -0.01138
1552.50000   -0.02164
1553.00000   -0.03209
1553.50000   -0.04245
1554.00000   -0.05245
1554.50000   -0.06182
1555.00000   -0.07029
1555.50000   -0.07766
1556.00000   -0.08372
1556.50000   -0.08831
1557.00000   -0.09132
1557.50000   -0.09266
1558.00000   -0.09229
1558.50000   -0.09019
1559.00000   -0.08637
1559.50000   -0.08086
1560.00000   -0.07369
1560.50000   -0.06491
1561.00000   -0.05457
1561.50000   -0.04271
1562.00000   -0.02936
1562.50000   -0.01454
1563.00000    0.00176
1563.50000    0.01955
1564.00000    0.03885
1564.50000    0.05971
1565.00000    0.08218
1565.50000    0.10632
1566.00000    0.13220
1566.50000    0.15989
1567.00000    0.18949
1567.50000    0.22108
1568.00000    0.25478
1568.50000    0.29071
1569.00000    0.32901
1569.50000    0.36988
1570.00000    0.41350
1570.50000    0.46015
1571.00000    0.51010
1571.50000    0.56370
1572.00000    0.62131
1572.50000    0.68336
1573.00000    0.75030
1573.50000    0.82258
1574.00000    0.90069
1574.50000    0.98511
1575.00000    1.07630
1575.50000    1.17466
1576.00000    1.28056
1576.50000    1.39429
1577.00000    1.51603
1577.50000    1.64589
1578.00000    1.78381
1578.50000    1.92966
1579.00000    2.08314
1579.50000    2.24384
1580.00000    2.41121
1580.50000    2.58459
1581.00000    2.76321
1581.50000    2.94617
1582.00000    3.13252
1582.50000    3.32120
1583.00000    3.51110
1583.50000    3.70107
1584.00000    3.88991
1584.50000    4.07639
1585.00000    4.25930
1585.50000    4.43738
1586.00000    4.60941
1586.50000    4.77419
1587.00000    4.93052
1587.50000    5.07725
1588.00000    5.21326
1588.50000    5.33751
1589.00000    5.44898
1589.50000    5.54677
1590.00000    5.63003
1590.50000    5.69804
1591.00000    5.75018
1591.50000    5.78595
1592.00000    5.80501
1592.50000    5.80716
1593.00000    5.79237
1593.50000    5.76078
1594.00000    5.71270
1594.50000    5.64861
1595.00000    5.56916
1595.50000    5.47517
1596.00000    5.36759
1596.50000    5.24752
1597.00000    5.11617
1597.50000    4.97484
1598.00000    4.82489
1598.50000    4.66775
1599.00000    4.50484
1599.50000    4.33759
1600.00000    4.16739
1600.50000    3.99558
1601.00000    3.82343
1601.50000    3.65212
1602.00000    3.48271
1602.50000    3.31618
1603.00000    3.15338
1603.50000    2.99502
1604.00000    2.84173
1604.50000    2.69399
1605.00000    2.55218
1605.50000    2.41658
1606.00000    2.28737
1606.50000    2.16465
1607.00000    2.04842
1607.50000    1.93864
1608.00000    1.83520
1608.50000    1.73794
1609.00000    1.64669
1609.50000    1.56122
1610.00000    1.48132
1610.50000    1.40675
1611.00000    1.33728
1611.50000    1.27272
1612.00000    1.21287
1612.50000    1.15757
1613.00000    1.10668
1613.50000    1.06011
1614.00000    1.01779
1614.50000    0.97969
1615.00000    0.94581
1615.50000    0.91617
1616.00000    0.89078
1616.50000    0.86970
1617.00000    0.85294
1617.50000    0.84052
1618.00000    0.83241
1618.50000    0.82855
1619.00000    0.82883
1619.50000    0.83305
1620.00000    0.84097
1620.50000    0.85226
1621.00000    0.86651
1621.50000    0.88324
1622.00000    0.90189
1622.50000    0.92185
1623.00000    0.94244
1623.50000    0.96294
1624.00000    0.98264
1624.50000    1.00078
1625.00000    1.01666
1625.50000    1.02959
1626.00000    1.03893
1626.50000    1.04412
1627.00000    1.04470
1627.50000    1.04029
1628.00000    1.03062
1628.50000    1.01554
1629.00000    0.99502
1629.50000    0.96914
1630.00000    0.93809
1630.50000    0.90218
1631.00000    0.86180
1631.50000    0.81743
1632.00000    0.76963
1632.50000    0.71901
1633.00000    0.66620
1633.50000    0.61188
1634.00000    0.55672
1634.50000    0.50138
1635.00000    0.44648
1635.50000    0.39263
1636.00000    0.34037
1636.50000    0.29018
1637.00000    0.24248
1637.50000    0.19762
1638.00000    0.15586
1638.50000    0.11740
1639.00000    0.08237
1639.50000    0.05083
1640.00000    0.02276
1640.50000   -0.00189
1641.00000   -0.02324
1641.50000   -0.04145
1642.00000   -0.05669
1642.50000   -0.06918
1643.00000   -0.07916
1643.50000   -0.08686
1644.00000   -0.09252
1644.50000   -0.09638
1645.00000   -0.09866
1645.50000   -0.09959
1646.00000   -0.09935
1646.50000   -0.09812
1647.00000   -0.09607
1647.50000   -0.09333
1648.00000   -0.09003
1648.50000   -0.08626
1649.00000   -0.08212
1649.50000   -0.07769
1650.00000   -0.07303
1650.50000   -0.06820
1651.00000   -0.06325
1651.50000   -0.05824
1652.00000   -0.05320
1652.50000   -0.04818
1653.00000   -0.04319
1653.50000   -0.03828
1654.00000   -0.03344
1654.50000   -0.02870
1655.00000   -0.02402
1655.50000   -0.01939
1656.00000   -0.01476
1656.50000   -0.01007
1657.00000   -0.00524
1657.50000   -0.00016
1658.00000    0.00530
1658.50000    0.01127
1659.00000    0.01791
1659.50000    0.02537
1660.00000    0.03384
1660.50000    0.04346
1661.00000    0.05441
1661.50000    0.06681
1662.00000    0.08079
1662.50000    0.09644
1663.00000    0.11382
1663.50000    0.13293
1664.00000    0.15374
1664.50000    0.17618
1665.00000    0.20012
1665.50000    0.22537
1666.00000    0.25169
1666.50000    0.27883
1667.00000    0.30644
1667.50000    0.33417
1668.00000    0.36163
1668.50000    0.38841
1669.00000    0.41408
1669.50000    0.43820
1670.00000    0.46035
1670.50000    0.48012
1671.00000    0.49712
1671.50000    0.51100
1672.00000    0.52146
1672.50000    0.52824
1673.00000    0.53116
1673.50000    0.53007
1674.00000    0.52492
1674.50000    0.51571
1675.00000    0.50251
1675.50000    0.48546
1676.00000    0.46476
1676.50000    0.44065
1677.00000    0.41345
1677.50000    0.38348
1678.00000    0.35113
1678.50000    0.31680
1679.00000    0.28087
1679.50000    0.24377
1680.00000    0.20590
1680.50000    0.16764
1681.00000    0.12937
1681.50000    0.09144
1682.00000    0.05417
1682.50000    0.01784
1683.00000   -0.01728
1683.50000   -0.05095
1684.00000   -0.08294
1684.50000   -0.11307
1685.00000   -0.14115
1685.50000   -0.16701
1686.00000   -0.19048
1686.50000   -0.21139
1687.00000   -0.22960
1687.50000   -0.24495
1688.00000   -0.25729
1688.50000   -0.26649
1689.00000   -0.27245
1689.50000   -0.27506
1690.00000   -0.27427
1690.50000   -0.27008
1691.00000   -0.26252
1691.50000   -0.25167
1692.00000   -0.23770
1692.50000   -0.22083
1693.00000   -0.20134
1693.50000   -0.17958
1694.00000   -0.15598
1694.50000   -0.13100
1695.00000   -0.10515
1695.50000   -0.07898
1696.00000   -0.05303
1696.50000   -0.02787
1697.00000   -0.00403
1697.50000    0.01797
1698.00000    0.03770
1698.50000    0.05476
1699.00000    0.06884
1699.50000    0.07971
1700.00000    0.08722
1700.50000    0.09133
1701.00000    0.09207
1701.50000    0.08955
1702.00000    0.08398
1702.50000    0.07560
1703.00000    0.06473
1703.50000    0.05172
1704.00000    0.03695
1704.50000    0.02082
1705.00000    0.00374
1705.50000   -0.01389
1706.00000   -0.03169
1706.50000   -0.04927
1707.00000   -0.06630
1707.50000   -0.08245
1708.00000   -0.09744
1708.50000   -0.11099
1709.00000   -0.12288
1709.50000   -0.13291
1710.00000   -0.14088
1710.50000   -0.14666
1711.00000   -0.15011
1711.50000   -0.15112
1712.00000   -0.14962
1712.50000   -0.14553
1713.00000   -0.13884
1713.50000   -0.12952
1714.00000   -0.11760
1714.50000   -0.10311
1715.00000   -0.08613
1715.50000   -0.06675
1716.00000   -0.04510
1716.50000   -0.02134
1717.00000    0.00435
1717.50000    0.03176
1718.00000    0.06066
1718.50000    0.09080
1719.00000    0.12190
1719.50000    0.15367
1720.00000    0.18581
1720.50000    0.21799
1721.00000    0.24990
1721.50000    0.28118
1722.00000    0.31152
1722.50000    0.34055
1723.00000    0.36795
1723.50000    0.39339
1724.00000    0.41653
1724.50000    0.43709
1725.00000    0.45478
1725.50000    0.46935
1726.00000    0.48059
1726.50000    0.48834
1727.00000    0.49248
1727.50000    0.49297
1728.00000    0.48981
1728.50000    0.48309
1729.00000    0.47298
1729.50000    0.45971
1730.00000    0.44359
1730.50000    0.42498
1731.00000    0.40434
1731.50000    0.38214
1732.00000    0.35891
1732.50000    0.33519
1733.00000    0.31155
1733.50000    0.28853
1734.00000    0.26663
1734.50000    0.24633
1735.00000    0.22803
1735.50000    0.21205
1736.00000    0.19862
1736.50000    0.18787
1737.00000    0.17984
1737.50000    0.17444
1738.00000    0.17149
1738.50000    0.17070
1739.00000    0.17172
1739.50000    0.17411
1740.00000    0.17739
1740.50000    0.18105
1741.00000    0.18456
1741.50000    0.18740
1742.00000    0.18910
1742.50000    0.18922
1743.00000    0.18738
1743.50000    0.18331
1744.00000    0.17678
1744.50000    0.16770
1745.00000    0.15605
1745.50000    0.14191
1746.00000    0.12544
1746.50000    0.10689
1747.00000    0.08658
1747.50000    0.06486
1748.00000    0.04215
1748.50000    0.01886
1749.00000   -0.00457
1749.50000   -0.02774
1750.00000   -0.05025
1750.50000   -0.07175
1751.00000   -0.09195
1751.50000   -0.11060
1752.00000   -0.12752
1752.50000   -0.14258
1753.00000   -0.15573
1753.50000   -0.16696
1754.00000   -0.17630
1754.50000   -0.18384
1755.00000   -0.18968
1755.50000   -0.19396
1756.00000   -0.19681
1756.50000   -0.19837
1757.00000   -0.19878
1757.50000   -0.19816
1758.00000   -0.19663
1758.50000   -0.19428
1759.00000   -0.19119
1759.50000   -0.18743
1760.00000   -0.18304
1760.50000   -0.17806
1761.00000   -0.17256
1761.50000   -0.16655
1762.00000   -0.16010
1762.50000   -0.15327
1763.00000   -0.14612
1763.50000   -0.13874
1764.00000   -0.13123
1764.50000   -0.12371
1765.00000   -0.11628
1765.50000   -0.10907
1766.00000   -0.10219
1766.50000   -0.09574
1767.00000   -0.08983
1767.50000   -0.08449
1768.00000   -0.07978
1768.50000   -0.07570
1769.00000   -0.07221
1769.50000   -0.06924
1770.00000   -0.06670
1770.50000   -0.06444
1771.00000   -0.06232
1771.50000   -0.06016
1772.00000   -0.05777
1772.50000   -0.05496
1773.00000   -0.05157
1773.50000   -0.04741
1774.00000   -0.04235
1774.50000   -0.03629
1775.00000   -0.02914
1775.50000   -0.02089
1776.00000   -0.01154
1776.50000   -0.00114
1777.00000    0.01020
1777.50000    0.02236
1778.00000    0.03517
1778.50000    0.04845
1779.00000    0.06199
1779.50000    0.07557
1780.00000    0.08898
1780.50000    0.10202
1781.00000    0.11449
1781.50000    0.12624
1782.00000    0.13713
1782.50000    0.14704
1783.00000    0.15592
1783.50000    0.16372
1784.00000    0.17043
1784.50000    0.17609
1785.00000    0.18073
1785.50000    0.18443
1786.00000    0.18727
1786.50000    0.18932
1787.00000    0.19067
1787.50000    0.19138
1788.00000    0.19153
1788.50000    0.19114
1789.00000    0.19023
1789.50000    0.18877
1790.00000    0.18672
1790.50000    0.18401
1791.00000    0.18054
1791.50000    0.17618
1792.00000    0.17082
1792.50000    0.16431
1793.00000    0.15651
1793.50000    0.14729
1794.00000    0.13656
1794.50000    0.12424
1795.00000    0.11030
1795.50000    0.09473
1796.00000    0.07762
1796.50000    0.05905
1797.00000    0.03921
1797.50000    0.01830
1798.00000   -0.00342
1798.50000   -0.02565
1799.00000   -0.04808
1799.50000   -0.07035
1800.00000   -0.09211
1800.50000   -0.11304
1801.00000   -0.13279
1801.50000   -0.15108
1802.00000   -0.16764
1802.50000   -0.18224
1803.00000   -0.19473
1803.50000   -0.20499
1804.00000   -0.21294
1804.50000   -0.21859
1805.00000   -0.22197
1805.50000   -0.22314
1806.00000   -0.22223
1806.50000   -0.21936
1807.00000   -0.21469
1807.50000   -0.20837
1808.00000   -0.20057
1808.50000   -0.19143
1809.00000   -0.18109
1809.50000   -0.16967
1810.00000   -0.15728
1810.50000   -0.14400
1811.00000   -0.12991
1811.50000   -0.11506
1812.00000   -0.09951
1812.50000   -0.08331
1813.00000   -0.06652
1813.50000   -0.04922
1814.00000   -0.03149
1814.50000   -0.01344
1815.00000    0.00480
1815.50000    0.02306
1816.00000    0.04118
1816.50000    0.05893
1817.00000    0.07611
1817.50000    0.09248
1818.00000    0.10779
1818.50000    0.12180
1819.00000    0.13427
1819.50000    0.14497
1820.00000    0.15370
1820.50000    0.16028
1821.00000    0.16457
1821.50000    0.16645
1822.00000    0.16586
1822.50000    0.16279
1823.00000    0.15725
1823.50000    0.14931
1824.00000    0.13910
1824.50000    0.12676
1825.00000    0.11249
1825.50000    0.09653
1826.00000    0.07913
1826.50000    0.06059
1827.00000    0.04120
1827.50000    0.02130
1828.00000    0.00121
1828.50000   -0.01874
1829.00000   -0.03823
1829.50000   -0.05693
1830.00000   -0.07454
1830.50000   -0.09077
1831.00000   -0.10536
1831.50000   -0.11806
1832.00000   -0.12865
1832.50000   -0.13695
1833.00000   -0.14278
1833.50000   -0.14601
1834.00000   -0.14654
1834.50000   -0.14427
1835.00000   -0.13916
1835.50000   -0.13117
1836.00000   -0.12028
1836.50000   -0.10652
1837.00000   -0.08992
1837.50000   -0.07054
1838.00000   -0.04845
1838.50000   -0.02375
1839.00000    0.00341
1839.50000    0.03289
1840.00000    0.06450
1840.50000    0.09802
1841.00000    0.13319
1841.50000    0.16972
1842.00000    0.20727
1842.50000    0.24549
1843.00000    0.28396
1843.50000    0.32225
1844.00000    0.35989
1844.50000    0.39638
1845.00000    0.43123
1845.50000    0.46391
1846.00000    0.49391
1846.50000    0.52076
1847.00000    0.54398
1847.50000    0.56314
1848.00000    0.57788
1848.50000    0.58787
1849.00000    0.59287
1849.50000    0.59273
1850.00000    0.58735
1850.50000    0.57677
1851.00000    0.56107
1851.50000    0.54046
1852.00000    0.51521
1852.50000    0.48569
1853.00000    0.45234
1853.50000    0.41566
1854.00000    0.37620
1854.50000    0.33456
1855.00000    0.29137
1855.50000    0.24725
1856.00000    0.20286
1856.50000    0.15881
1857.00000    0.11569
1857.50000    0.07405
1858.00000    0.03442
1858.50000   -0.00278
1859.00000   -0.03715
1859.50000   -0.06838
1860.00000   -0.09623
1860.50000   -0.12052
1861.00000   -0.14116
1861.50000   -0.15812
1862.00000   -0.17141
1862.50000   -0.18113
1863.00000   -0.18742
1863.50000   -0.19044
1864.00000   -0.19042
1864.50000   -0.18757
1865.00000   -0.18217
1865.50000   -0.17448
1866.00000   -0.16476
1866.50000   -0.15328
1867.00000   -0.14031
1867.50000   -0.12611
1868.00000   -0.11091
1868.50000   -0.09495
1869.00000   -0.07846
1869.50000   -0.06166
1870.00000   -0.04476
1870.50000   -0.02797
1871.00000   -0.01150
1871.50000    0.00445
1872.00000    0.01967
1872.50000    0.03394
1873.00000    0.04705
1873.50000    0.05879
1874.00000    0.06897
1874.50000    0.07738
1875.00000    0.08385
1875.50000    0.08824
1876.00000    0.09042
1876.50000    0.09034
1877.00000    0.08795
1877.50000    0.08328
1878.00000    0.07643
1878.50000    0.06753
1879.00000    0.05680
1879.50000    0.04449
1880.00000    0.03093
1880.50000    0.01647
1881.00000    0.00151
1881.50000   -0.01352
1882.00000   -0.02818
1882.50000   -0.04204
1883.00000   -0.05467
1883.50000   -0.06569
1884.00000   -0.07473
1884.50000   -0.08149
1885.00000   -0.08573
1885.50000   -0.08727
1886.00000   -0.08601
1886.50000   -0.08192
1887.00000   -0.07504
1887.50000   -0.06549
1888.00000   -0.05345
1888.50000   -0.03918
1889.00000   -0.02296
1889.50000   -0.00515
1890.00000    0.01388
1890.50000    0.03370
1891.00000    0.05389
1891.50000    0.07402
1892.00000    0.09365
1892.50000    0.11236
1893.00000    0.12974
1893.50000    0.14541
1894.00000    0.15903
1894.50000    0.17030
1895.00000    0.17896
1895.50000    0.18481
1896.00000    0.18772
1896.50000    0.18761
1897.00000    0.18447
1897.50000    0.17837
1898.00000    0.16944
1898.50000    0.15788
1899.00000    0.14395
1899.50000    0.12798
1900.00000    0.11035
1900.50000    0.09145
1901.00000    0.07174
1901.50000    0.05167
1902.00000    0.03167
1902.50000    0.01221
1903.00000   -0.00634
1903.50000   -0.02359
1904.00000   -0.03924
1904.50000   -0.05306
1905.00000   -0.06485
1905.50000   -0.07453
1906.00000   -0.08207
1906.50000   -0.08750
1907.00000   -0.09093
1907.50000   -0.09252
1908.00000   -0.09246
1908.50000   -0.09098
1909.00000   -0.08833
1909.50000   -0.08475
1910.00000   -0.08048
1910.50000   -0.07573
1911.00000   -0.07070
1911.50000   -0.06555
1912.00000   -0.06040
1912.50000   -0.05535
1913.00000   -0.05046
1913.50000   -0.04577
1914.00000   -0.04130
1914.50000   -0.03705
1915.00000   -0.03304
1915.50000   -0.02925
1916.00000   -0.02569
1916.50000   -0.02236
1917.00000   -0.01928
1917.50000   -0.01648
1918.00000   -0.01398
1918.50000   -0.01182
1919.00000   -0.01001
1919.50000   -0.00858
1920.00000   -0.00755
1920.50000   -0.00690
1921.00000   -0.00663
1921.50000   -0.00668
1922.00000   -0.00701
1922.50000   -0.00755
1923.00000   -0.00821
1923.50000   -0.00890
1924.00000   -0.00954
1924.50000   -0.01004
1925.00000   -0.01031
1925.50000   -0.01032
1926.00000   -0.01000
1926.50000   -0.00934
1927.00000   -0.00834
1927.50000   -0.00703
1928.00000   -0.00543
1928.50000   -0.00359
1929.00000   -0.00159
1929.50000    0.00054
1930.00000    0.00273
1930.50000    0.00495
1931.00000    0.00715
1931.50000    0.00932
1932.00000    0.01145
1932.50000    0.01356
1933.00000    0.01566
1933.50000    0.01776
1934.00000    0.01989
1934.50000    0.02205
1935.00000    0.02425
1935.50000    0.02647
1936.00000    0.02868
1936.50000    0.03081
1937.00000    0.03279
1937.50000    0.03454
1938.00000    0.03595
1938.50000    0.03692
1939.00000    0.03735
1939.50000    0.03717
1940.00000    0.03630
1940.50000    0.03473
1941.00000    0.03244
1941.50000    0.02949
1942.00000    0.02595
1942.50000    0.02195
1943.00000    0.01762
1943.50000    0.01316
1944.00000    0.00874
1944.50000    0.00457
1945.00000    0.00084
1945.50000   -0.00229
1946.00000   -0.00467
1946.50000   -0.00620
1947.00000   -0.00682
1947.50000   -0.00652
1948.00000   -0.00534
1948.50000   -0.00335
1949.00000   -0.00068
1949.50000    0.00254
1950.00000    0.00612
1950.50000    0.00991
1951.00000    0.01374
1951.50000    0.01745
1952.00000    0.02092
1952.50000    0.02405
1953.00000    0.02676
1953.50000    0.02903
1954.00000    0.03087
1954.50000    0.03229
1955.00000    0.03335
1955.50000    0.03410
1956.00000    0.03461
1956.50000    0.03493
1957.00000    0.03512
1957.50000    0.03518
1958.00000    0.03511
1958.50000    0.03489
1959.00000    0.03444
1959.50000    0.03368
1960.00000    0.03250
1960.50000    0.03079
1961.00000    0.02842
1961.50000    0.02527
1962.00000    0.02125
1962.50000    0.01629
1963.00000    0.01034
1963.50000    0.00342
1964.00000   -0.00443
1964.50000   -0.01312
1965.00000   -0.02251
1965.50000   -0.03242
1966.00000   -0.04266
1966.50000   -0.05299
1967.00000   -0.06318
1967.50000   -0.07298
1968.00000   -0.08217
1968.50000   -0.09053
1969.00000   -0.09791
1969.50000   -0.10415
1970.00000   -0.10916
1970.50000   -0.11288
1971.00000   -0.11531
1971.50000   -0.11646
1972.00000   -0.11640
1972.50000   -0.11521
1973.00000   -0.11299
1973.50000   -0.10983
1974.00000   -0.10584
1974.50000   -0.10110
1975.00000   -0.09567
1975.50000   -0.08961
1976.00000   -0.08291
1976.50000   -0.07554
1977.00000   -0.06745
1977.50000   -0.05855
1978.00000   -0.04873
1978.50000   -0.03787
1979.00000   -0.02583
1979.50000   -0.01247
1980.00000    0.00233
1980.50000    0.01866
1981.00000    0.03661
1981.50000    0.05620
1982.00000    0.07745
1982.50000    0.10030
1983.00000    0.12468
1983.50000    0.15045
1984.00000    0.17746
1984.50000    0.20552
1985.00000    0.23441
1985.50000    0.26391
1986.00000    0.29379
1986.50000    0.32384
1987.00000    0.35383
1987.50000    0.38357
1988.00000    0.41289
1988.50000    0.44165
1989.00000    0.46970
1989.50000    0.49696
1990.00000    0.52331
1990.50000    0.54868
1991.00000    0.57298
1991.50000    0.59612
1992.00000    0.61799
1992.50000    0.63848
1993.00000    0.65745
1993.50000    0.67474
1994.00000    0.69019
1994.50000    0.70360
1995.00000    0.71481
1995.50000    0.72362
1996.00000    0.72989
1996.50000    0.73348
1997.00000    0.73430
1997.50000    0.73233
1998.00000    0.72756
1998.50000    0.72010
1999.00000    0.71010
1999.50000    0.69776
2000.00000    0.68337
2000.50000    0.66726
2001.00000    0.64979
2001.50000    0.63137
2002.00000    0.61238
2002.50000    0.59323
2003.00000    0.57429
2003.50000    0.55589
2004.00000    0.53829
2004.50000    0.52169
2005.00000    0.50623
2005.50000    0.49195
2006.00000    0.47882
2006.50000    0.46673
2007.00000    0.45550
2007.50000    0.44488
2008.00000    0.43460
2008.50000    0.42435
2009.00000    0.41379
2009.50000    0.40262
2010.00000    0.39052
2010.50000    0.37723
2011.00000    0.36254
2011.50000    0.34626
2012.00000    0.32831
2012.50000    0.30864
2013.00000    0.28729
2013.50000    0.26437
2014.00000    0.24003
2014.50000    0.21452
2015.00000    0.18810
2015.50000    0.16111
2016.00000    0.13390
2016.50000    0.10686
2017.00000    0.08038
2017.50000    0.05488
2018.00000    0.03073
2018.50000    0.00832
2019.00000   -0.01204
2019.50000   -0.03004
2020.00000   -0.04546
2020.50000   -0.05813
2021.00000   -0.06796
2021.50000   -0.07494
2022.00000   -0.07913
2022.50000   -0.08071
2023.00000   -0.07990
2023.50000   -0.07704
2024.00000   -0.07251
2024.50000   -0.06675
2025.00000   -0.06025
2025.50000   -0.05355
2026.00000   -0.04715
2026.50000   -0.04157
2027.00000   -0.03730
2027.50000   -0.03477
2028.00000   -0.03433
2028.50000   -0.03628
2029.00000   -0.04079
2029.50000   -0.04795
2030.00000   -0.05773
2030.50000   -0.07001
2031.00000   -0.08454
2031.50000   -0.10099
2032.00000   -0.11896
2032.50000   -0.13797
2033.00000   -0.15747
2033.50000   -0.17692
2034.00000   -0.19573
2034.50000   -0.21333
2035.00000   -0.22914
2035.50000   -0.24265
2036.00000   -0.25337
2036.50000   -0.26087
2037.00000   -0.26478
2037.50000   -0.26479
2038.00000   -0.26067
2038.50000   -0.25224
2039.00000   -0.23940
2039.50000   -0.22213
2040.00000   -0.20044
2040.50000   -0.17444
2041.00000   -0.14427
2041.50000   -0.11015
2042.00000   -0.07235
2042.50000   -0.03120
2043.00000    0.01292
2043.50000    0.05958
2044.00000    0.10830
2044.50000    0.15855
2045.00000    0.20975
2045.50000    0.26129
2046.00000    0.31253
2046.50000    0.36280
2047.00000    0.41143
2047.50000    0.45773
2048.00000    0.50103
2048.50000    0.54068
2049.00000    0.57609
2049.50000    0.60668
2050.00000    0.63197
2050.50000    0.65156
2051.00000    0.66513
2051.50000    0.67247
2052.00000    0.67347
2052.50000    0.66817
2053.00000    0.65669
2053.50000    0.63931
2054.00000    0.61641
2054.50000    0.58849
2055.00000    0.55615
2055.50000    0.52008
2056.00000    0.48107
2056.50000    0.43993
2057.00000    0.39756
2057.50000    0.35483
2058.00000    0.31266
2058.50000    0.27191
2059.00000    0.23340
2059.50000    0.19791
2060.00000    0.16611
2060.50000    0.13858
2061.00000    0.11579
2061.50000    0.09810
2062.00000    0.08571
2062.50000    0.07874
2063.00000    0.07714
2063.50000    0.08074
2064.00000    0.08929
2064.50000    0.10239
2065.00000    0.11958
2065.50000    0.14033
2066.00000    0.16403
2066.50000    0.19005
2067.00000    0.21775
2067.50000    0.24646
2068.00000    0.27556
2068.50000    0.30443
2069.00000    0.33253
2069.50000    0.35934
2070.00000    0.38443
2070.50000    0.40744
2071.00000    0.42806
2071.50000    0.44607
2072.00000    0.46132
2072.50000    0.47369
2073.00000    0.48315
2073.50000    0.48968
2074.00000    0.49332
2074.50000    0.49409
2075.00000    0.49205
2075.50000    0.48725
2076.00000    0.47971
2076.50000    0.46946
2077.00000    0.45650
2077.50000    0.44079
2078.00000    0.42232
2078.50000    0.40101
2079.00000    0.37683
2079.50000    0.34974
2080.00000    0.31974
2080.50000    0.28684
2081.00000    0.25116
2081.50000    0.21284
2082.00000    0.17215
2082.50000    0.12942
2083.00000    0.08512
2083.50000    0.03977
2084.00000   -0.00596
2084.50000   -0.05135
2085.00000   -0.09560
2085.50000   -0.13787
2086.00000   -0.17729
2086.50000   -0.21302
2087.00000   -0.24423
2087.50000   -0.27021
2088.00000   -0.29033
2088.50000   -0.30409
2089.00000   -0.31117
2089.50000   -0.31140
2090.00000   -0.30482
2090.50000   -0.29165
2091.00000   -0.27227
2091.50000   -0.24728
2092.00000   -0.21738
2092.50000   -0.18342
2093.00000   -0.14635
2093.50000   -0.10716
2094.00000   -0.06689
2094.50000   -0.02653
2095.00000    0.01293
2095.50000    0.05061
2096.00000    0.08570
2096.50000    0.11752
2097.00000    0.14554
2097.50000    0.16935
2098.00000    0.18868
2098.50000    0.20339
2099.00000    0.21349
2099.50000    0.21909
2100.00000    0.22037
2100.50000    0.21763
2101.00000    0.21120
2101.50000    0.20147
2102.00000    0.18886
2102.50000    0.17378
2103.00000    0.15668
2103.50000    0.13797
2104.00000    0.11806
2104.50000    0.09733
2105.00000    0.07616
2105.50000    0.05488
2106.00000    0.03381
2106.50000    0.01322
2107.00000   -0.00664
2107.50000   -0.02556
2108.00000   -0.04337
2108.50000   -0.05995
2109.00000   -0.07524
2109.50000   -0.08921
2110.00000   -0.10190
2110.50000   -0.11340
2111.00000   -0.12386
2111.50000   -0.13345
2112.00000   -0.14241
2112.50000   -0.15097
2113.00000   -0.15938
2113.50000   -0.16789
2114.00000   -0.17671
2114.50000   -0.18598
2115.00000   -0.19580
2115.50000   -0.20617
2116.00000   -0.21701
2116.50000   -0.22812
2117.00000   -0.23920
2117.50000   -0.24984
2118.00000   -0.25957
2118.50000   -0.26781
2119.00000   -0.27397
2119.50000   -0.27742
2120.00000   -0.27753
2120.50000   -0.27373
2121.00000   -0.26554
2121.50000   -0.25255
2122.00000   -0.23452
2122.50000   -0.21135
2123.00000   -0.18312
2123.50000   -0.15009
2124.00000   -0.11269
2124.50000   -0.07155
2125.00000   -0.02743
2125.50000    0.01877
2126.00000    0.06604
2126.50000    0.11333
2127.00000    0.15954
2127.50000    0.20361
2128.00000    0.24451
2128.50000    0.28132
2129.00000    0.31324
2129.50000    0.33963
2130.00000    0.36002
2130.50000    0.37413
2131.00000    0.38189
2131.50000    0.38341
2132.00000    0.37898
2132.50000    0.36908
2133.00000    0.35431
2133.50000    0.33540
2134.00000    0.31319
2134.50000    0.28856
2135.00000    0.26241
2135.50000    0.23568
2136.00000    0.20923
2136.50000    0.18392
2137.00000    0.16051
2137.50000    0.13970
2138.00000    0.12206
2138.50000    0.10810
2139.00000    0.09820
2139.50000    0.09264
2140.00000    0.09163
2140.50000    0.09525
2141.00000    0.10351
2141.50000    0.11635
2142.00000    0.13363
2142.50000    0.15514
2143.00000    0.18061
2143.50000    0.20973
2144.00000    0.24213
2144.50000    0.27739
2145.00000    0.31504
2145.50000    0.35457
2146.00000    0.39545
2146.50000    0.43709
2147.00000    0.47888
2147.50000    0.52019
2148.00000    0.56038
2148.50000    0.59878
2149.00000    0.63476
2149.50000    0.66769
2150.00000    0.69698
2150.50000    0.72209
2151.00000    0.74251
2151.50000    0.75785
2152.00000    0.76775
2152.50000    0.77199
2153.00000    0.77040
2153.50000    0.76295
2154.00000    0.74969
2154.50000    0.73079
2155.00000    0.70652
2155.50000    0.67722
2156.00000    0.64336
2156.50000    0.60545
2157.00000    0.56408
2157.50000    0.51991
2158.00000    0.47364
2158.50000    0.42598
2159.00000    0.37768
2159.50000    0.32950
2160.00000    0.28219
2160.50000    0.23646
2161.00000    0.19301
2161.50000    0.15250
2162.00000    0.11550
2162.50000    0.08256
2163.00000    0.05410
2163.50000    0.03050
2164.00000    0.01200
2164.50000   -0.00125
2165.00000   -0.00919
2165.50000   -0.01192
2166.00000   -0.00961
2166.50000   -0.00258
2167.00000    0.00876
2167.50000    0.02390
2168.00000    0.04221
2168.50000    0.06302
2169.00000    0.08559
2169.50000    0.10912
2170.00000    0.13282
2170.50000    0.15588
2171.00000    0.17754
2171.50000    0.19707
2172.00000    0.21380
2172.50000    0.22716
2173.00000    0.23668
2173.50000    0.24198
2174.00000    0.24281
2174.50000    0.23905
2175.00000    0.23067
2175.50000    0.21779
2176.00000    0.20060
2176.50000    0.17939
2177.00000    0.15454
2177.50000    0.12648
2178.00000    0.09570
2178.50000    0.06271
2179.00000    0.02803
2179.50000   -0.00781
2180.00000   -0.04429
2180.50000   -0.08093
2181.00000   -0.11726
2181.50000   -0.15286
2182.00000   -0.18737
2182.50000   -0.22043
2183.00000   -0.25177
2183.50000   -0.28113
2184.00000   -0.30832
2184.50000   -0.33316
2185.00000   -0.35553
2185.50000   -0.37532
2186.00000   -0.39246
2186.50000   -0.40689
2187.00000   -0.41858
2187.50000   -0.42749
2188.00000   -0.43361
2188.50000   -0.43693
2189.00000   -0.43744
2189.50000   -0.43513
2190.00000   -0.43001
2190.50000   -0.42206
2191.00000   -0.41131
2191.50000   -0.39777
2192.00000   -0.38148
2192.50000   -0.36250
2193.00000   -0.34090
2193.50000   -0.31682
2194.00000   -0.29041
2194.50000   -0.26188
2195.00000   -0.23148
2195.50000   -0.19953
2196.00000   -0.16637
2196.50000   -0.13242
2197.00000   -0.09813
2197.50000   -0.06399
2198.00000   -0.03049
2198.50000    0.00185
2199.00000    0.03253
2199.50000    0.06105
2200.00000    0.08699
2200.50000    0.10995
2201.00000    0.12964
2201.50000    0.14582
2202.00000    0.15837
2202.50000    0.16725
2203.00000    0.17255
2203.50000    0.17443
2204.00000    0.17316
2204.50000    0.16907
2205.00000    0.16258
2205.50000    0.15415
2206.00000    0.14424
2206.50000    0.13338
2207.00000    0.12203
2207.50000    0.11066
2208.00000    0.09969
2208.50000    0.08948
2209.00000    0.08033
2209.50000    0.07249
2210.00000    0.06611
2210.50000    0.06128
2211.00000    0.05803
2211.50000    0.05635
2212.00000    0.05613
2212.50000    0.05727
2213.00000    0.05961
2213.50000    0.06296
2214.00000    0.06713
2214.50000    0.07189
2215.00000    0.07704
2215.50000    0.08235
2216.00000    0.08759
2216.50000    0.09253
2217.00000    0.09694
2217.50000    0.10059
2218.00000    0.10326
2218.50000    0.10473
2219.00000    0.10479
2219.50000    0.10326
2220.00000    0.09995
2220.50000    0.09474
2221.00000    0.08755
2221.50000    0.07832
2222.00000    0.06710
2222.50000    0.05398
2223.00000    0.03913
2223.50000    0.02282
2224.00000    0.00538
2224.50000   -0.01278
2225.00000   -0.03115
2225.50000   -0.04919
2226.00000   -0.06632
2226.50000   -0.08190
2227.00000   -0.09533
2227.50000   -0.10598
2228.00000   -0.11330
2228.50000   -0.11678
2229.00000   -0.11601
2229.50000   -0.11067
2230.00000   -0.10057
2230.50000   -0.08564
2231.00000   -0.06596
2231.50000   -0.04172
2232.00000   -0.01327
2232.50000    0.01893
2233.00000    0.05430
2233.50000    0.09220
2234.00000    0.13189
2234.50000    0.17261
2235.00000    0.21356
2235.50000    0.25396
2236.00000    0.29306
2236.50000    0.33018
2237.00000    0.36467
2237.50000    0.39602
2238.00000    0.42380
2238.50000    0.44768
2239.00000    0.46746
2239.50000    0.48306
2240.00000    0.49446
2240.50000    0.50180
2241.00000    0.50525
2241.50000    0.50509
2242.00000    0.50162
2242.50000    0.49521
2243.00000    0.48622
2243.50000    0.47504
2244.00000    0.46204
2244.50000    0.44759
2245.00000    0.43201
2245.50000    0.41559
2246.00000    0.39858
2246.50000    0.38122
2247.00000    0.36365
2247.50000    0.34603
2248.00000    0.32844
2248.50000    0.31095
2249.00000    0.29361
2249.50000    0.27641
2250.00000    0.25934
2250.50000    0.24240
2251.00000    0.22552
2251.50000    0.20867
2252.00000    0.19178
2252.50000    0.17479
2253.00000    0.15763
2253.50000    0.14024
2254.00000    0.12255
2254.50000    0.10450
2255.00000    0.08604
2255.50000    0.06715
2256.00000    0.04781
2256.50000    0.02802
2257.00000    0.00784
2257.50000   -0.01267
2258.00000   -0.03341
2258.50000   -0.05423
2259.00000   -0.07496
2259.50000   -0.09538
2260.00000   -0.11526
2260.50000   -0.13432
2261.00000   -0.15230
2261.50000   -0.16890
2262.00000   -0.18385
2262.50000   -0.19686
2263.00000   -0.20771
2263.50000   -0.21618
2264.00000   -0.22210
2264.50000   -0.22537
2265.00000   -0.22592
2265.50000   -0.22376
2266.00000   -0.21895
2266.50000   -0.21163
2267.00000   -0.20196
2267.50000   -0.19019
2268.00000   -0.17657
2268.50000   -0.16141
2269.00000   -0.14504
2269.50000   -0.12779
2270.00000   -0.10998
2270.50000   -0.09195
2271.00000   -0.07399
2271.50000   -0.05637
2272.00000   -0.03933
2272.50000   -0.02307
2273.00000   -0.00773
2273.50000    0.00659
2274.00000    0.01982
2274.50000    0.03196
2275.00000    0.04303
2275.50000    0.05308
2276.00000    0.06220
2276.50000    0.07051
2277.00000    0.07810
2277.50000    0.08509
2278.00000    0.09159
2278.50000    0.09767
2279.00000    0.10341
2279.50000    0.10881
2280.00000    0.11386
2280.50000    0.11850
2281.00000    0.12263
2281.50000    0.12609
2282.00000    0.12870
2282.50000    0.13023
2283.00000    0.13044
2283.50000    0.12907
2284.00000    0.12585
2284.50000    0.12056
2285.00000    0.11296
2285.50000    0.10289
2286.00000    0.09023
2286.50000    0.07492
2287.00000    0.05699
2287.50000    0.03655
2288.00000    0.01379
2288.50000   -0.01100
2289.00000   -0.03749
2289.50000   -0.06523
2290.00000   -0.09374
2290.50000   -0.12248
2291.00000   -0.15088
2291.50000   -0.17835
2292.00000   -0.20431
2292.50000   -0.22817
2293.00000   -0.24940
2293.50000   -0.26750
2294.00000   -0.28202
2294.50000   -0.29259
2295.00000   -0.29890
2295.50000   -0.30071
2296.00000   -0.29788
2296.50000   -0.29032
2297.00000   -0.27804
2297.50000   -0.26110
2298.00000   -0.23963
2298.50000   -0.21385
2299.00000   -0.18402
2299.50000   -0.15044
2300.00000   -0.11347
2300.50000   -0.07352
2301.00000   -0.03102
2301.50000    0.01355
2302.00000    0.05969
2302.50000    0.10688
2303.00000    0.15460
2303.50000    0.20229
2304.00000    0.24941
2304.50000    0.29542
2305.00000    0.33979
2305.50000    0.38201
2306.00000    0.42161
2306.50000    0.45815
2307.00000    0.49124
2307.50000    0.52054
2308.00000    0.54577
2308.50000    0.56671
2309.00000    0.58324
2309.50000    0.59526
2310.00000    0.60279
2310.50000    0.60589
2311.00000    0.60471
2311.50000    0.59945
2312.00000    0.59037
2312.50000    0.57780
2313.00000    0.56210
2313.50000    0.54366
2314.00000    0.52291
2314.50000    0.50029
2315.00000    0.47625
2315.50000    0.45122
2316.00000    0.42563
2316.50000    0.39988
2317.00000    0.37433
2317.50000    0.34930
2318.00000    0.32507
2318.50000    0.30186
2319.00000    0.27985
2319.50000    0.25914
2320.00000    0.23981
2320.50000    0.22188
2321.00000    0.20533
2321.50000    0.19011
2322.00000    0.17614
2322.50000    0.16335
2323.00000    0.15163
2323.50000    0.14092
2324.00000    0.13112
2324.50000    0.12219
2325.00000    0.11411
2325.50000    0.10685
2326.00000    0.10045
2326.50000    0.09493
2327.00000    0.09037
2327.50000    0.08682
2328.00000    0.08437
2328.50000    0.08307
2329.00000    0.08299
2329.50000    0.08417
2330.00000    0.08662
2330.50000    0.09032
2331.00000    0.09524
2331.50000    0.10130
2332.00000    0.10839
2332.50000    0.11639
2333.00000    0.12514
2333.50000    0.13447
2334.00000    0.14422
2334.50000    0.15419
2335.00000    0.16420
2335.50000    0.17408
2336.00000    0.18365
2336.50000    0.19275
2337.00000    0.20122
2337.50000    0.20890
2338.00000    0.21565
2338.50000    0.22132
2339.00000    0.22576
2339.50000    0.22883
2340.00000    0.23038
2340.50000    0.23026
2341.00000    0.22832
2341.50000    0.22443
2342.00000    0.21846
2342.50000    0.21030
2343.00000    0.19989
2343.50000    0.18718
2344.00000    0.17218
2344.50000    0.15495
2345.00000    0.13559
2345.50000    0.11427
2346.00000    0.09121
2346.50000    0.06667
2347.00000    0.04096
2347.50000    0.01441
2348.00000   -0.01263
2348.50000   -0.03978
2349.00000   -0.06669
2349.50000   -0.09303
2350.00000   -0.11850
2350.50000   -0.14284
2351.00000   -0.16584
2351.50000   -0.18737
2352.00000   -0.20733
2352.50000   -0.22568
2353.00000   -0.24245
2353.50000   -0.25770
2354.00000   -0.27151
2354.50000   -0.28402
2355.00000   -0.29534
2355.50000   -0.30561
2356.00000   -0.31493
2356.50000   -0.32338
2357.00000   -0.33103
2357.50000   -0.33787
2358.00000   -0.34389
2358.50000   -0.34901
2359.00000   -0.35312
2359.50000   -0.35606
2360.00000   -0.35767
2360.50000   -0.35775
2361.00000   -0.35608
2361.50000   -0.35248
2362.00000   -0.34673
2362.50000   -0.33869
2363.00000   -0.32821
2363.50000   -0.31521
2364.00000   -0.29965
2364.50000   -0.28153
2365.00000   -0.26094
2365.50000   -0.23801
2366.00000   -0.21293
2366.50000   -0.18594
2367.00000   -0.15733
2367.50000   -0.12741
2368.00000   -0.09654
2368.50000   -0.06505
2369.00000   -0.03331
2369.50000   -0.00162
2370.00000    0.02971
2370.50000    0.06043
2371.00000    0.09037
2371.50000    0.11940
2372.00000    0.14747
2372.50000    0.17459
2373.00000    0.20085
2373.50000    0.22638
2374.00000    0.25138
2374.50000    0.27607
2375.00000    0.30066
2375.50000    0.32537
2376.00000    0.35041
2376.50000    0.37589
2377.00000    0.40191
2377.50000    0.42846
2378.00000    0.45543
2378.50000    0.48264
2379.00000    0.50981
2379.50000    0.53656
2380.00000    0.56248
2380.50000    0.58706
2381.00000    0.60980
2381.50000    0.63017
2382.00000    0.64768
2382.50000    0.66189
2383.00000    0.67241
2383.50000    0.67896
2384.00000    0.68138
2384.50000    0.67960
2385.00000    0.67367
2385.50000    0.66375
2386.00000    0.65012
2386.50000    0.63310
2387.00000    0.61310
2387.50000    0.59056
2388.00000    0.56592
2388.50000    0.53959
2389.00000    0.51199
2389.50000    0.48343
2390.00000    0.45418
2390.50000    0.42445
2391.00000    0.39436
2391.50000    0.36396
2392.00000    0.33328
2392.50000    0.30228
2393.00000    0.27094
2393.50000    0.23922
2394.00000    0.20715
2394.50000    0.17478
2395.00000    0.14222
2395.50000    0.10969
2396.00000    0.07745
2396.50000    0.04587
2397.00000    0.01536
2397.50000   -0.01361
2398.00000   -0.04054
2398.50000   -0.06493
2399.00000   -0.08628
2399.50000   -0.10417
2400.00000   -0.11823
2400.50000   -0.12820
2401.00000   -0.13393
2401.50000   -0.13536
2402.00000   -0.13261
2402.50000   -0.12588
2403.00000   -0.11551
2403.50000   -0.10192
2404.00000   -0.08561
2404.50000   -0.06717
2405.00000   -0.04716
2405.50000   -0.02620
2406.00000   -0.00486
2406.50000    0.01633
2407.00000    0.03689
2407.50000    0.05642
2408.00000    0.07461
2408.50000    0.09121
2409.00000    0.10608
2409.50000    0.11913
2410.00000    0.13034
2410.50000    0.13975
2411.00000    0.14742
2411.50000    0.15345
2412.00000    0.15794
2412.50000    0.16098
2413.00000    0.16265
2413.50000    0.16301
2414.00000    0.16209
2414.50000    0.15991
2415.00000    0.15647
2415.50000    0.15173
2416.00000    0.14567
2416.50000    0.13824
2417.00000    0.12942
2417.50000    0.11920
2418.00000    0.10758
2418.50000    0.09458
2419.00000    0.08027
2419.50000    0.06474
2420.00000    0.04809
2420.50000    0.03047
2421.00000    0.01204
2421.50000   -0.00701
2422.00000   -0.02648
2422.50000   -0.04617
2423.00000   -0.06585
2423.50000   -0.08531
2424.00000   -0.10431
2424.50000   -0.12263
2425.00000   -0.14004
2425.50000   -0.15632
2426.00000   -0.17122
2426.50000   -0.18452
2427.00000   -0.19597
2427.50000   -0.20534
2428.00000   -0.21239
2428.50000   -0.21690
2429.00000   -0.21864
2429.50000   -0.21743
2430.00000   -0.21310
2430.50000   -0.20552
2431.00000   -0.19460
2431.50000   -0.18034
2432.00000   -0.16278
2432.50000   -0.14204
2433.00000   -0.11833
2433.50000   -0.09193
2434.00000   -0.06320
2434.50000   -0.03259
2435.00000   -0.00060
2435.50000    0.03220
2436.00000    0.06521
2436.50000    0.09780
2437.00000    0.12934
2437.50000    0.15921
2438.00000    0.18684
2438.50000    0.21170
2439.00000    0.23335
2439.50000    0.25141
2440.00000    0.26565
2440.50000    0.27591
2441.00000    0.28216
2441.50000    0.28449
2442.00000    0.28308
2442.50000    0.27823
2443.00000    0.27031
2443.50000    0.25977
2444.00000    0.24712
2444.50000    0.23288
2445.00000    0.21758
2445.50000    0.20173
2446.00000    0.18581
2446.50000    0.17024
2447.00000    0.15535
2447.50000    0.14138
2448.00000    0.12847
2448.50000    0.11666
2449.00000    0.10587
2449.50000    0.09592
2450.00000    0.08654
2450.50000    0.07739
2451.00000    0.06805
2451.50000    0.05811
2452.00000    0.04712
2452.50000    0.03466
2453.00000    0.02036
2453.50000    0.00392
2454.00000   -0.01486
2454.50000   -0.03608
2455.00000   -0.05969
2455.50000   -0.08553
2456.00000   -0.11328
2456.50000   -0.14253
2457.00000   -0.17274
2457.50000   -0.20328
2458.00000   -0.23346
2458.50000   -0.26256
2459.00000   -0.28986
2459.50000   -0.31466
2460.00000   -0.33633
2460.50000   -0.35434
2461.00000   -0.36827
2461.50000   -0.37782
2462.00000   -0.38285
2462.50000   -0.38337
2463.00000   -0.37952
2463.50000   -0.37157
2464.00000   -0.35992
2464.50000   -0.34504
2465.00000   -0.32747
2465.50000   -0.30780
2466.00000   -0.28660
2466.50000   -0.26443
2467.00000   -0.24181
2467.50000   -0.21916
2468.00000   -0.19685
2468.50000   -0.17515
2469.00000   -0.15422
2469.50000   -0.13415
2470.00000   -0.11494
2470.50000   -0.09651
2471.00000   -0.07873
2471.50000   -0.06144
2472.00000   -0.04446
2472.50000   -0.02760
2473.00000   -0.01070
2473.50000    0.00636
2474.00000    0.02367
2474.50000    0.04126
2475.00000    0.05910
2475.50000    0.07712
2476.00000    0.09516
2476.50000    0.11304
2477.00000    0.13054
2477.50000    0.14738
2478.00000    0.16329
2478.50000    0.17797
2479.00000    0.19113
2479.50000    0.20251
2480.00000    0.21185
2480.50000    0.21896
2481.00000    0.22368
2481.50000    0.22591
2482.00000    0.22561
2482.50000    0.22281
2483.00000    0.21763
2483.50000    0.21023
2484.00000    0.20087
2484.50000    0.18986
2485.00000    0.17756
2485.50000    0.16439
2486.00000    0.15079
2486.50000    0.13725
2487.00000    0.12422
2487.50000    0.11216
2488.00000    0.10148
2488.50000    0.09256
2489.00000    0.08570
2489.50000    0.08110
2490.00000    0.07891
2490.50000    0.07915
2491.00000    0.08174
2491.50000    0.08653
2492.00000    0.09325
2492.50000    0.10157
2493.00000    0.11108
2493.50000    0.12135
2494.00000    0.13188
2494.50000    0.14221
2495.00000    0.15184
2495.50000    0.16036
2496.00000    0.16736
2496.50000    0.17252
2497.00000    0.17557
2497.50000    0.17633
2498.00000    0.17470
2498.50000    0.17066
2499.00000    0.16426
2499.50000    0.15562
2500.00000    0.14492
2500.50000    0.13240
2501.00000    0.11833
2501.50000    0.10300
2502.00000    0.08673
2502.50000    0.06985
2503.00000    0.05268
2503.50000    0.03554
2504.00000    0.01873
2504.50000    0.00255
2505.00000   -0.01276
2505.50000   -0.02696
2506.00000   -0.03985
2506.50000   -0.05127
2507.00000   -0.06110
2507.50000   -0.06924
2508.00000   -0.07568
2508.50000   -0.08041
2509.00000   -0.08349
2509.50000   -0.08504
2510.00000   -0.08519
2510.50000   -0.08416
2511.00000   -0.08218
2511.50000   -0.07950
2512.00000   -0.07644
2512.50000   -0.07329
2513.00000   -0.07037
2513.50000   -0.06799
2514.00000   -0.06643
2514.50000   -0.06597
2515.00000   -0.06683
2515.50000   -0.06918
2516.00000   -0.07316
2516.50000   -0.07881
2517.00000   -0.08615
2517.50000   -0.09511
2518.00000   -0.10556
2518.50000   -0.11732
2519.00000   -0.13014
2519.50000   -0.14373
2520.00000   -0.15776
2520.50000   -0.17187
2521.00000   -0.18568
2521.50000   -0.19881
2522.00000   -0.21086
2522.50000   -0.22147
2523.00000   -0.23028
2523.50000   -0.23698
2524.00000   -0.24132
2524.50000   -0.24306
2525.00000   -0.24207
2525.50000   -0.23826
2526.00000   -0.23161
2526.50000   -0.22217
2527.00000   -0.21007
2527.50000   -0.19551
2528.00000   -0.17873
2528.50000   -0.16006
2529.00000   -0.13983
2529.50000   -0.11844
2530.00000   -0.09627
2530.50000   -0.07373
2531.00000   -0.05121
2531.50000   -0.02906
2532.00000   -0.00761
2532.50000    0.01287
2533.00000    0.03218
2533.50000    0.05016
2534.00000    0.06676
2534.50000    0.08195
2535.00000    0.09579
2535.50000    0.10838
2536.00000    0.11988
2536.50000    0.13044
2537.00000    0.14027
2537.50000    0.14954
2538.00000    0.15843
2538.50000    0.16706
2539.00000    0.17552
2539.50000    0.18386
2540.00000    0.19204
2540.50000    0.19999
2541.00000    0.20754
2541.50000    0.21449
2542.00000    0.22060
2542.50000    0.22557
2543.00000    0.22911
2543.50000    0.23090
2544.00000    0.23064
2544.50000    0.22808
2545.00000    0.22299
2545.50000    0.21524
2546.00000    0.20474
2546.50000    0.19151
2547.00000    0.17564
2547.50000    0.15732
2548.00000    0.13683
2548.50000    0.11453
2549.00000    0.09085
2549.50000    0.06628
2550.00000    0.04132
2550.50000    0.01653
2551.00000   -0.00757
2551.50000   -0.03047
2552.00000   -0.05169
2552.50000   -0.07084
2553.00000   -0.08760
2553.50000   -0.10173
2554.00000   -0.11309
2554.50000   -0.12167
2555.00000   -0.12754
2555.50000   -0.13087
2556.00000   -0.13193
2556.50000   -0.13104
2557.00000   -0.12860
2557.50000   -0.12502
2558.00000   -0.12075
2558.50000   -0.11620
2559.00000   -0.11178
2559.50000   -0.10780
2560.00000   -0.10456
2560.50000   -0.10223
2561.00000   -0.10091
2561.50000   -0.10062
2562.00000   -0.10124
2562.50000   -0.10261
2563.00000   -0.10447
2563.50000   -0.10649
2564.00000   -0.10830
2564.50000   -0.10951
2565.00000   -0.10970
2565.50000   -0.10846
2566.00000   -0.10541
2566.50000   -0.10023
2567.00000   -0.09260
2567.50000   -0.08232
2568.00000   -0.06920
2568.50000   -0.05317
2569.00000   -0.03418
2569.50000   -0.01227
2570.00000    0.01247
2570.50000    0.03991
2571.00000    0.06985
2571.50000    0.10210
2572.00000    0.13640
2572.50000    0.17250
2573.00000    0.21012
2573.50000    0.24897
2574.00000    0.28874
2574.50000    0.32913
2575.00000    0.36981
2575.50000    0.41044
2576.00000    0.45068
2576.50000    0.49018
2577.00000    0.52856
2577.50000    0.56545
2578.00000    0.60049
2578.50000    0.63329
2579.00000    0.66351
2579.50000    0.69080
2580.00000    0.71486
2580.50000    0.73544
2581.00000    0.75231
2581.50000    0.76534
2582.00000    0.77446
2582.50000    0.77966
2583.00000    0.78105
2583.50000    0.77878
2584.00000    0.77312
2584.50000    0.76440
2585.00000    0.75303
2585.50000    0.73947
2586.00000    0.72423
2586.50000    0.70784
2587.00000    0.69086
2587.50000    0.67381
2588.00000    0.65720
2588.50000    0.64151
2589.00000    0.62713
2589.50000    0.61437
2590.00000    0.60347
2590.50000    0.59456
2591.00000    0.58764
2591.50000    0.58264
2592.00000    0.57937
2592.50000    0.57754
2593.00000    0.57677
2593.50000    0.57663
2594.00000    0.57664
2594.50000    0.57626
2595.00000    0.57498
2595.50000    0.57227
2596.00000    0.56768
2596.50000    0.56077
2597.00000    0.55122
2597.50000    0.53875
2598.00000    0.52323
2598.50000    0.50462
2599.00000    0.48296
2599.50000    0.45845
2600.00000    0.43136
2600.50000    0.40205
2601.00000    0.37096
2601.50000    0.33860
2602.00000    0.30552
2602.50000    0.27228
2603.00000    0.23945
2603.50000    0.20759
2604.00000    0.17720
2604.50000    0.14875
2605.00000    0.12262
2605.50000    0.09911
2606.00000    0.07843
2606.50000    0.06069
2607.00000    0.04589
2607.50000    0.03392
2608.00000    0.02455
2608.50000    0.01749
2609.00000    0.01232
2609.50000    0.00857
2610.00000    0.00570
2610.50000    0.00314
2611.00000    0.00030
2611.50000   -0.00340
2612.00000   -0.00852
2612.50000   -0.01553
2613.00000   -0.02484
2613.50000   -0.03675
2614.00000   -0.05144
2614.50000   -0.06894
2615.00000   -0.08916
2615.50000   -0.11182
2616.00000   -0.13656
2616.50000   -0.16285
2617.00000   -0.19006
2617.50000   -0.21748
2618.00000   -0.24436
2618.50000   -0.26990
2619.00000   -0.29333
2619.50000   -0.31394
2620.00000   -0.33107
2620.50000   -0.34418
2621.00000   -0.35288
2621.50000   -0.35688
2622.00000   -0.35608
2622.50000   -0.35052
2623.00000   -0.34039
2623.50000   -0.32601
2624.00000   -0.30782
2624.50000   -0.28634
2625.00000   -0.26215
2625.50000   -0.23589
2626.00000   -0.20816
2626.50000   -0.17958
2627.00000   -0.15070
2627.50000   -0.12202
2628.00000   -0.09398
2628.50000   -0.06691
2629.00000   -0.04108
2629.50000   -0.01668
2630.00000    0.00617
2630.50000    0.02742
2631.00000    0.04705
2631.50000    0.06509
2632.00000    0.08156
2632.50000    0.09653
2633.00000    0.11005
2633.50000    0.12214
2634.00000    0.13285
2634.50000    0.14219
2635.00000    0.15019
2635.50000    0.15685
2636.00000    0.16222
2636.50000    0.16633
2637.00000    0.16925
2637.50000    0.17110
2638.00000    0.17203
2638.50000    0.17223
2639.00000    0.17197
2639.50000    0.17154
2640.00000    0.17131
2640.50000    0.17166
2641.00000    0.17303
2641.50000    0.17586
2642.00000    0.18060
2642.50000    0.18771
2643.00000    0.19761
2643.50000    0.21069
2644.00000    0.22728
2644.50000    0.24768
2645.00000    0.27210
2645.50000    0.30068
2646.00000    0.33351
2646.50000    0.37059
2647.00000    0.41188
2647.50000    0.45728
2648.00000    0.50664
2648.50000    0.55980
2649.00000    0.61660
2649.50000    0.67684
2650.00000    0.74039
2650.50000    0.80712
2651.00000    0.87692
2651.50000    0.94977
2652.00000    1.02567
2652.50000    1.10466
2653.00000    1.18684
2653.50000    1.27236
2654.00000    1.36138
2654.50000    1.45409
2655.00000    1.55071
2655.50000    1.65142
2656.00000    1.75643
2656.50000    1.86592
2657.00000    1.98004
2657.50000    2.09891
2658.00000    2.22261
2658.50000    2.35121
2659.00000    2.48472
2659.50000    2.62314
2660.00000    2.76644
2660.50000    2.91456
2661.00000    3.06742
2661.50000    3.22496
2662.00000    3.38706
2662.50000    3.55364
2663.00000    3.72456
2663.50000    3.89972
2664.00000    4.07897
2664.50000    4.26215
2665.00000    4.44907
2665.50000    4.63953
2666.00000    4.83326
2666.50000    5.02998
2667.00000    5.22935
2667.50000    5.43098
2668.00000    5.63443
2668.50000    5.83922
2669.00000    6.04482
2669.50000    6.25066
2670.00000    6.45614
2670.50000    6.66062
2671.00000    6.86345
2671.50000    7.06399
2672.00000    7.26157
2672.50000    7.45554
2673.00000    7.64530
2673.50000    7.83023
2674.00000    8.00977
2674.50000    8.18342
2675.00000    8.35070
2675.50000    8.51119
2676.00000    8.66451
2676.50000    8.81036
2677.00000    8.94847
2677.50000    9.07861
2678.00000    9.20060
2678.50000    9.31431
2679.00000    9.41962
2679.50000    9.51643
2680.00000    9.60468
2680.50000    9.68428
2681.00000    9.75517
2681.50000    9.81728
2682.00000    9.87051
2682.50000    9.91479
2683.00000    9.94999
2683.50000    9.97601
2684.00000    9.99272
2684.50000   10.00000
2685.00000    9.99773
2685.50000    9.98580
2686.00000    9.96411
2686.50000    9.93260
2687.00000    9.89120
2687.50000    9.83992
2688.00000    9.77878
2688.50000    9.70784
2689.00000    9.62721
2689.50000    9.53705
2690.00000    9.43754
2690.50000    9.32894
2691.00000    9.21151
2691.50000    9.08557
2692.00000    8.95150
2692.50000    8.80968
2693.00000    8.66056
2693.50000    8.50462
2694.00000    8.34237
2694.50000    8.17436
2695.00000    8.00117
2695.50000    7.82341
2696.00000    7.64173
2696.50000    7.45678
2697.00000    7.26922
2697.50000    7.07970
2698.00000    6.88889
2698.50000    6.69739
2699.00000    6.50580
2699.50000    6.31464
2700.00000    6.12439
2700.50000    5.93547
2701.00000    5.74824
2701.50000    5.56295
2702.00000    5.37985
2702.50000    5.19910
2703.00000    5.02083
2703.50000    4.84514
2704.00000    4.67214
2704.50000    4.50193
2705.00000    4.33466
2705.50000    4.17048
2706.00000    4.00965
2706.50000    3.85243
2707.00000    3.69918
2707.50000    3.55029
2708.00000    3.40621
2708.50000    3.26739
2709.00000    3.13431
2709.50000    3.00740
2710.00000    2.88708
2710.50000    2.77366
2711.00000    2.66740
2711.50000    2.56840
2712.00000    2.47667
2712.50000    2.39204
2713.00000    2.31424
2713.50000    2.24284
2714.00000    2.17729
2714.50000    2.11693
2715.00000    2.06103
2715.50000    2.00878
2716.00000    1.95936
2716.50000    1.91194
2717.00000    1.86571
2717.50000    1.81991
2718.00000    1.77388
2718.50000    1.72700
2719.00000    1.67881
2719.50000    1.62892
2720.00000    1.57706
2720.50000    1.52308
2721.00000    1.46691
2721.50000    1.40859
2722.00000    1.34823
2722.50000    1.28599
2723.00000    1.22209
2723.50000    1.15679
2724.00000    1.09034
2724.50000    1.02302
2725.00000    0.95512
2725.50000    0.88692
2726.00000    0.81867
2726.50000    0.75064
2727.00000    0.68309
2727.50000    0.61627
2728.00000    0.55043
2728.50000    0.48584
2729.00000    0.42279
2729.50000    0.36158
2730.00000    0.30253
2730.50000    0.24600
2731.00000    0.19236
2731.50000    0.14201
2732.00000    0.09536
2732.50000    0.05284
2733.00000    0.01486
2733.50000   -0.01820
2734.00000   -0.04597
2734.50000   -0.06814
2735.00000   -0.08449
2735.50000   -0.09486
2736.00000   -0.09921
2736.50000   -0.09761
2737.00000   -0.09025
2737.50000   -0.07744
2738.00000   -0.05965
2738.50000   -0.03742
2739.00000   -0.01144
2739.50000    0.01751
2740.00000    0.04859
2740.50000    0.08088
2741.00000    0.11344
2741.50000    0.14535
2742.00000    0.17569
2742.50000    0.20359
2743.00000    0.22827
2743.50000    0.24902
2744.00000    0.26527
2744.50000    0.27653
2745.00000    0.28249
2745.50000    0.28292
2746.00000    0.27776
2746.50000    0.26706
2747.00000    0.25097
2747.50000    0.22978
2748.00000    0.20385
2748.50000    0.17362
2749.00000    0.13962
2749.50000    0.10242
2750.00000    0.06264
2750.50000    0.02095
2751.00000   -0.02198
2751.50000   -0.06544
2752.00000   -0.10873
2752.50000   -0.15112
2753.00000   -0.19193
2753.50000   -0.23046
2754.00000   -0.26608
2754.50000   -0.29817
2755.00000   -0.32619
2755.50000   -0.34963
2756.00000   -0.36808
2756.50000   -0.38121
2757.00000   -0.38878
2757.50000   -0.39064
2758.00000   -0.38675
2758.50000   -0.37716
2759.00000   -0.36201
2759.50000   -0.34153
2760.00000   -0.31603
2760.50000   -0.28589
2761.00000   -0.25152
2761.50000   -0.21340
2762.00000   -0.17202
2762.50000   -0.12790
2763.00000   -0.08154
2763.50000   -0.03346
2764.00000    0.01584
2764.50000    0.06587
2765.00000    0.11615
2765.50000    0.16624
2766.00000    0.21570
2766.50000    0.26413
2767.00000    0.31114
2767.50000    0.35638
2768.00000    0.39951
2768.50000    0.44023
2769.00000    0.47828
2769.50000    0.51341
2770.00000    0.54543
2770.50000    0.57419
2771.00000    0.59954
2771.50000    0.62141
2772.00000    0.63972
2772.50000    0.65443
2773.00000    0.66551
2773.50000    0.67295
2774.00000    0.67673
2774.50000    0.67682
2775.00000    0.67320
2775.50000    0.66583
2776.00000    0.65467
2776.50000    0.63967
2777.00000    0.62080
2777.50000    0.59806
2778.00000    0.57147
2778.50000    0.54112
2779.00000    0.50716
2779.50000    0.46984
2780.00000    0.42949
2780.50000    0.38656
2781.00000    0.34159
2781.50000    0.29519
2782.00000    0.24810
2782.50000    0.20108
2783.00000    0.15494
2783.50000    0.11048
2784.00000    0.06850
2784.50000    0.02970
2785.00000   -0.00527
2785.50000   -0.03589
2786.00000   -0.06179
2786.50000   -0.08273
2787.00000   -0.09862
2787.50000   -0.10953
2788.00000   -0.11564
2788.50000   -0.11728
2789.00000   -0.11484
2789.50000   -0.10881
2790.00000   -0.09970
2790.50000   -0.08803
2791.00000   -0.07433
2791.50000   -0.05907
2792.00000   -0.04268
2792.50000   -0.02555
2793.00000   -0.00799
2793.50000    0.00976
2794.00000    0.02750
2794.50000    0.04509
2795.00000    0.06242
2795.50000    0.07939
2796.00000    0.09594
2796.50000    0.11199
2797.00000    0.12746
2797.50000    0.14226
2798.00000    0.15627
2798.50000    0.16938
2799.00000    0.18144
2799.50000    0.19231
2800.00000    0.20184
2800.50000    0.20987
2801.00000    0.21627
2801.50000    0.22090
2802.00000    0.22362
2802.50000    0.22432
2803.00000    0.22289
2803.50000    0.21924
2804.00000    0.21325
2804.50000    0.20485
2805.00000    0.19394
2805.50000    0.18045
2806.00000    0.16432
2806.50000    0.14548
2807.00000    0.12393
2807.50000    0.09968
2808.00000    0.07278
2808.50000    0.04336
2809.00000    0.01162
2809.50000   -0.02218
2810.00000   -0.05770
2810.50000   -0.09451
2811.00000   -0.13210
2811.50000   -0.16989
2812.00000   -0.20726
2812.50000   -0.24355
2813.00000   -0.27805
2813.50000   -0.31009
2814.00000   -0.33901
2814.50000   -0.36419
2815.00000   -0.38510
2815.50000   -0.40128
2816.00000   -0.41239
2816.50000   -0.41820
2817.00000   -0.41859
2817.50000   -0.41357
2818.00000   -0.40327
2818.50000   -0.38794
2819.00000   -0.36793
2819.50000   -0.34366
2820.00000   -0.31564
2820.50000   -0.28444
2821.00000   -0.25066
2821.50000   -0.21491
2822.00000   -0.17784
2822.50000   -0.14008
2823.00000   -0.10222
2823.50000   -0.06486
2824.00000   -0.02852
2824.50000    0.00631
2825.00000    0.03918
2825.50000    0.06972
2826.00000    0.09763
2826.50000    0.12267
2827.00000    0.14466
2827.50000    0.16350
2828.00000    0.17918
2828.50000    0.19173
2829.00000    0.20126
2829.50000    0.20792
2830.00000    0.21193
2830.50000    0.21352
2831.00000    0.21296
2831.50000    0.21054
2832.00000    0.20652
2832.50000    0.20118
2833.00000    0.19474
2833.50000    0.18741
2834.00000    0.17936
2834.50000    0.17069
2835.00000    0.16149
2835.50000    0.15178
2836.00000    0.14156
2836.50000    0.13081
2837.00000    0.11949
2837.50000    0.10757
2838.00000    0.09501
2838.50000    0.08183
2839.00000    0.06806
2839.50000    0.05378
2840.00000    0.03911
2840.50000    0.02424
2841.00000    0.00939
2841.50000   -0.00519
2842.00000   -0.01920
2842.50000   -0.03234
2843.00000   -0.04431
2843.50000   -0.05481
2844.00000   -0.06358
2844.50000   -0.07039
2845.00000   -0.07507
2845.50000   -0.07752
2846.00000   -0.07771
2846.50000   -0.07565
2847.00000   -0.07148
2847.50000   -0.06535
2848.00000   -0.05751
2848.50000   -0.04824
2849.00000   -0.03788
2849.50000   -0.02679
2850.00000   -0.01533
2850.50000   -0.00388
2851.00000    0.00720
2851.50000    0.01756
2852.00000    0.02691
2852.50000    0.03499
2853.00000    0.04159
2853.50000    0.04658
2854.00000    0.04988
2854.50000    0.05147
2855.00000    0.05139
2855.50000    0.04976
2856.00000    0.04674
2856.50000    0.04251
2857.00000    0.03733
2857.50000    0.03145
2858.00000    0.02512
2858.50000    0.01860
2859.00000    0.01214
2859.50000    0.00595
2860.00000    0.00021
2860.50000   -0.00494
2861.00000   -0.00940
2861.50000   -0.01312
2862.00000   -0.01607
2862.50000   -0.01825
2863.00000   -0.01971
2863.50000   -0.02047
2864.00000   -0.02056
2864.50000   -0.02002
2865.00000   -0.01885
2865.50000   -0.01703
2866.00000   -0.01453
2866.50000   -0.01127
2867.00000   -0.00719
2867.50000   -0.00221
2868.00000    0.00374
2868.50000    0.01072
2869.00000    0.01874
2869.50000    0.02776
2870.00000    0.03770
2870.50000    0.04841
2871.00000    0.05968
2871.50000    0.07121
2872.00000    0.08269
2872.50000    0.09375
2873.00000    0.10399
2873.50000    0.11303
2874.00000    0.12050
2874.50000    0.12605
2875.00000    0.12943
2875.50000    0.13043
2876.00000    0.12896
2876.50000    0.12500
2877.00000    0.11865
2877.50000    0.11009
2878.00000    0.09958
2878.50000    0.08746
2879.00000    0.07412
2879.50000    0.05995
2880.00000    0.04538
2880.50000    0.03080
2881.00000    0.01657
2881.50000    0.00300
2882.00000   -0.00967
2882.50000   -0.02130
2883.00000   -0.03178
2883.50000   -0.04113
2884.00000   -0.04940
2884.50000   -0.05672
2885.00000   -0.06327
2885.50000   -0.06925
2886.00000   -0.07488
2886.50000   -0.08037
2887.00000   -0.08591
2887.50000   -0.09167
2888.00000   -0.09775
2888.50000   -0.10422
2889.00000   -0.11107
2889.50000   -0.11822
2890.00000   -0.12554
2890.50000   -0.13283
2891.00000   -0.13983
2891.50000   -0.14624
2892.00000   -0.15172
2892.50000   -0.15591
2893.00000   -0.15846
2893.50000   -0.15901
2894.00000   -0.15724
2894.50000   -0.15289
2895.00000   -0.14574
2895.50000   -0.13567
2896.00000   -0.12265
2896.50000   -0.10673
2897.00000   -0.08808
2897.50000   -0.06700
2898.00000   -0.04387
2898.50000   -0.01916
2899.00000    0.00654
2899.50000    0.03260
2900.00000    0.05833
2900.50000    0.08303
2901.00000    0.10599
2901.50000    0.12654
2902.00000    0.14406
2902.50000    0.15803
2903.00000    0.16803
2903.50000    0.17375
2904.00000    0.17505
2904.50000    0.17190
2905.00000    0.16444
2905.50000    0.15293
2906.00000    0.13777
2906.50000    0.11946
2907.00000    0.09859
2907.50000    0.07579
2908.00000    0.05172
2908.50000    0.02706
2909.00000    0.00243
2909.50000   -0.02160
2910.00000   -0.04454
2910.50000   -0.06600
2911.00000   -0.08570
2911.50000   -0.10347
2912.00000   -0.11927
2912.50000   -0.13315
2913.00000   -0.14524
2913.50000   -0.15575
2914.00000   -0.16495
2914.50000   -0.17311
2915.00000   -0.18050
2915.50000   -0.18736
2916.00000   -0.19390
2916.50000   -0.20023
2917.00000   -0.20641
2917.50000   -0.21238
2918.00000   -0.21802
2918.50000   -0.22313
2919.00000   -0.22743
2919.50000   -0.23058
2920.00000   -0.23225
2920.50000   -0.23205
2921.00000   -0.22964
2921.50000   -0.22471
2922.00000   -0.21700
2922.50000   -0.20635
2923.00000   -0.19266
2923.50000   -0.17596
2924.00000   -0.15635
2924.50000   -0.13406
2925.00000   -0.10939
2925.50000   -0.08273
2926.00000   -0.05454
2926.50000   -0.02531
2927.00000    0.00444
2927.50000    0.03418
2928.00000    0.06341
2928.50000    0.09167
2929.00000    0.11855
2929.50000    0.14370
2930.00000    0.16687
2930.50000    0.18787
2931.00000    0.20659
2931.50000    0.22302
2932.00000    0.23717
2932.50000    0.24915
2933.00000    0.25908
2933.50000    0.26709
2934.00000    0.27333
2934.50000    0.27794
2935.00000    0.28103
2935.50000    0.28268
2936.00000    0.28293
2936.50000    0.28179
2937.00000    0.27923
2937.50000    0.27519
2938.00000    0.26962
2938.50000    0.26244
2939.00000    0.25362
2939.50000    0.24312
2940.00000    0.23099
2940.50000    0.21731
2941.00000    0.20222
2941.50000    0.18595
2942.00000    0.16878
2942.50000    0.15104
2943.00000    0.13313
2943.50000    0.11546
2944.00000    0.09843
2944.50000    0.08247
2945.00000    0.06793
2945.50000    0.05511
2946.00000    0.04424
2946.50000    0.03544
2947.00000    0.02873
2947.50000    0.02400
2948.00000    0.02104
2948.50000    0.01954
2949.00000    0.01911
2949.50000    0.01928
2950.00000    0.01955
2950.50000    0.01941
2951.00000    0.01838
2951.50000    0.01600
2952.00000    0.01193
2952.50000    0.00588
2953.00000   -0.00229
2953.50000   -0.01259
2954.00000   -0.02494
2954.50000   -0.03908
2955.00000   -0.05468
2955.50000   -0.07128
2956.00000   -0.08836
2956.50000   -0.10533
2957.00000   -0.12159
2957.50000   -0.13655
2958.00000   -0.14967
2958.50000   -0.16044
2959.00000   -0.16848
2959.50000   -0.17350
2960.00000   -0.17534
2960.50000   -0.17399
2961.00000   -0.16956
2961.50000   -0.16230
2962.00000   -0.15257
2962.50000   -0.14084
2963.00000   -0.12768
2963.50000   -0.11368
2964.00000   -0.09950
2964.50000   -0.08575
2965.00000   -0.07306
2965.50000   -0.06196
2966.00000   -0.05292
2966.50000   -0.04630
2967.00000   -0.04233
2967.50000   -0.04112
2968.00000   -0.04265
2968.50000   -0.04677
2969.00000   -0.05317
2969.50000   -0.06148
2970.00000   -0.07118
2970.50000   -0.08171
2971.00000   -0.09244
2971.50000   -0.10273
2972.00000   -0.11193
2972.50000   -0.11943
2973.00000   -0.12465
2973.50000   -0.12712
2974.00000   -0.12646
2974.50000   -0.12238
2975.00000   -0.11476
2975.50000   -0.10356
2976.00000   -0.08892
2976.50000   -0.07108
2977.00000   -0.05040
2977.50000   -0.02735
2978.00000   -0.00248
2978.50000    0.02359
2979.00000    0.05021
2979.50000    0.07673
2980.00000    0.10247
2980.50000    0.12684
2981.00000    0.14925
2981.50000    0.16923
2982.00000    0.18637
2982.50000    0.20037
2983.00000    0.21102
2983.50000    0.21823
2984.00000    0.22199
2984.50000    0.22237
2985.00000    0.21955
2985.50000    0.21374
2986.00000    0.20522
2986.50000    0.19431
2987.00000    0.18132
2987.50000    0.16659
2988.00000    0.15043
2988.50000    0.13315
2989.00000    0.11503
2989.50000    0.09632
2990.00000    0.07724
2990.50000    0.05797
2991.00000    0.03867
2991.50000    0.01949
2992.00000    0.00053
2992.50000   -0.01811
2993.00000   -0.03633
2993.50000   -0.05405
2994.00000   -0.07122
2994.50000   -0.08777
2995.00000   -0.10365
2995.50000   -0.11885
2996.00000   -0.13336
2996.50000   -0.14721
2997.00000   -0.16044
2997.50000   -0.17313
2998.00000   -0.18540
2998.50000   -0.19736
2999.00000   -0.20914
2999.50000   -0.22085
