1200.50000   -0.20199
1201.00000   -0.16569
1201.50000   -0.12956
1202.00000   -0.09377
1202.50000   -0.05851
1203.00000   -0.02401
1203.50000    0.00949
1204.00000    0.04175
1204.50000    0.07251
1205.00000    0.10157
1205.50000    0.12870
1206.00000    0.15373
1206.50000    0.17652
1207.00000    0.19697
1207.50000    0.21502
1208.00000    0.23066
1208.50000    0.24392
1209.00000    0.25486
1209.50000    0.26359
1210.00000    0.27023
1210.50000    0.27494
1211.00000    0.27790
1211.50000    0.27926
1212.00000    0.27920
1212.50000    0.27789
1213.00000    0.27545
1213.50000    0.27201
1214.00000    0.26765
1214.50000    0.26242
1215.00000    0.25634
1215.50000    0.24940
1216.00000    0.24155
1216.50000    0.23270
1217.00000    0.22276
1217.50000    0.21161
1218.00000    0.19912
1218.50000    0.18516
1219.00000    0.16960
1219.50000    0.15235
1220.00000    0.13331
1220.50000    0.11244
1221.00000    0.08973
1221.50000    0.06521
1222.00000    0.03897
1222.50000    0.01112
1223.00000   -0.01816
1223.50000   -0.04866
1224.00000   -0.08011
1224.50000   -0.11223
1225.00000   -0.14470
1225.50000   -0.17718
1226.00000   -0.20932
1226.50000   -0.24076
1227.00000   -0.27116
1227.50000   -0.30019
1228.00000   -0.32751
1228.50000   -0.35285
1229.00000   -0.37595
1229.50000   -0.39657
1230.00000   -0.41453
1230.50000   -0.42965
1231.00000   -0.44182
1231.50000   -0.45094
1232.00000   -0.45694
1232.50000   -0.45978
1233.00000   -0.45945
1233.50000   -0.45596
1234.00000   -0.44934
1234.50000   -0.43964
1235.00000   -0.42691
1235.50000   -0.41125
1236.00000   -0.39275
1236.50000   -0.37153
1237.00000   -0.34772
1237.50000   -0.32147
1238.00000   -0.29294
1238.50000   -0.26232
1239.00000   -0.22978
1239.50000   -0.19555
1240.00000   -0.15982
1240.50000   -0.12283
1241.00000   -0.08479
1241.50000   -0.04592
1242.00000   -0.00642
1242.50000    0.03349
1243.00000    0.07365
1243.50000    0.11388
1244.00000    0.15405
1244.50000    0.19404
1245.00000    0.23374
1245.50000    0.27309
1246.00000    0.31204
1246.50000    0.35053
1247.00000    0.38853
1247.50000    0.42600
1248.00000    0.46292
1248.50000    0.49924
1249.00000    0.53488
1249.50000    0.56977
1250.00000    0.60379
1250.50000    0.63680
1251.00000    0.66863
1251.50000    0.69907
1252.00000    0.72790
1252.50000    0.75485
1253.00000    0.77965
1253.50000    0.80201
1254.00000    0.82164
1254.50000    0.83825
1255.00000    0.85157
1255.50000    0.86135
1256.00000    0.86737
1256.50000    0.86946
1257.00000    0.86750
1257.50000    0.86140
1258.00000    0.85116
1258.50000    0.83683
1259.00000    0.81852
1259.50000    0.79643
1260.00000    0.77079
1260.50000    0.74191
1261.00000    0.71017
1261.50000    0.67599
1262.00000    0.63982
1262.50000    0.60218
1263.00000    0.56359
1263.50000    0.52458
1264.00000    0.48572
1264.50000    0.44754
1265.00000    0.41057
1265.50000    0.37530
1266.00000    0.34219
1266.50000    0.31164
1267.00000    0.28399
1267.50000    0.25950
1268.00000    0.23834
1268.50000    0.22061
1269.00000    0.20631
1269.50000    0.19534
1270.00000    0.18752
1270.50000    0.18257
1271.00000    0.18013
1271.50000    0.17979
1272.00000    0.18106
1272.50000    0.18342
1273.00000    0.18631
1273.50000    0.18917
1274.00000    0.19145
1274.50000    0.19261
1275.00000    0.19215
1275.50000    0.18965
1276.00000    0.18473
1276.50000    0.17711
1277.00000    0.16659
1277.50000    0.15306
1278.00000    0.13652
1278.50000    0.11705
1279.00000    0.09482
1279.50000    0.07007
1280.00000    0.04313
1280.50000    0.01435
1281.00000   -0.01584
1281.50000   -0.04702
1282.00000   -0.07874
1282.50000   -0.11055
1283.00000   -0.14203
1283.50000   -0.17277
1284.00000   -0.20242
1284.50000   -0.23065
1285.00000   -0.25719
1285.50000   -0.28181
1286.00000   -0.30437
1286.50000   -0.32472
1287.00000   -0.34279
1287.50000   -0.35853
1288.00000   -0.37194
1288.50000   -0.38299
1289.00000   -0.39171
1289.50000   -0.39809
1290.00000   -0.40215
1290.50000   -0.40388
1291.00000   -0.40324
1291.50000   -0.40020
1292.00000   -0.39469
1292.50000   -0.38664
1293.00000   -0.37595
1293.50000   -0.36255
1294.00000   -0.34633
1294.50000   -0.32724
1295.00000   -0.30522
1295.50000   -0.28026
1296.00000   -0.25242
1296.50000   -0.22178
1297.00000   -0.18852
1297.50000   -0.15286
1298.00000   -0.11513
1298.50000   -0.07570
1299.00000   -0.03502
1299.50000    0.00639
1300.00000    0.04797
1300.50000    0.08911
1301.00000    0.12919
1301.50000    0.16759
1302.00000    0.20371
1302.50000    0.23696
1303.00000    0.26685
1303.50000    0.29293
1304.00000    0.31487
1304.50000    0.33241
1305.00000    0.34544
1305.50000    0.35391
1306.00000    0.35793
1306.50000    0.35767
1307.00000    0.35342
1307.50000    0.34552
1308.00000    0.33440
1308.50000    0.32049
1309.00000    0.30427
1309.50000    0.28620
1310.00000    0.26672
1310.50000    0.24625
1311.00000    0.22513
1311.50000    0.20365
1312.00000    0.18205
1312.50000    0.16047
1313.00000    0.13904
1313.50000    0.11780
1314.00000    0.09678
1314.50000    0.07599
1315.00000    0.05545
1315.50000    0.03519
1316.00000    0.01529
1316.50000   -0.00411
1317.00000   -0.02280
1317.50000   -0.04051
1318.00000   -0.05688
1318.50000   -0.07146
1319.00000   -0.08373
1319.50000   -0.09312
1320.00000   -0.09899
1320.50000   -0.10069
1321.00000   -0.09757
1321.50000   -0.08898
1322.00000   -0.07433
1322.50000   -0.05310
1323.00000   -0.02482
1323.50000    0.01086
1324.00000    0.05418
1324.50000    0.10529
1325.00000    0.16421
1325.50000    0.23085
1326.00000    0.30505
1326.50000    0.38653
1327.00000    0.47498
1327.50000    0.57001
1328.00000    0.67121
1328.50000    0.77816
1329.00000    0.89044
1329.50000    1.00763
1330.00000    1.12937
1330.50000    1.25531
1331.00000    1.38512
1331.50000    1.51854
1332.00000    1.65528
1332.50000    1.79509
1333.00000    1.93771
1333.50000    2.08284
1334.00000    2.23015
1334.50000    2.37928
1335.00000    2.52977
1335.50000    2.68109
1336.00000    2.83263
1336.50000    2.98370
1337.00000    3.13350
1337.50000    3.28116
1338.00000    3.42575
1338.50000    3.56627
1339.00000    3.70169
1339.50000    3.83100
1340.00000    3.95318
1340.50000    4.06725
1341.00000    4.17234
1341.50000    4.26764
1342.00000    4.35246
1342.50000    4.42627
1343.00000    4.48867
1343.50000    4.53942
1344.00000    4.57845
1344.50000    4.60586
1345.00000    4.62190
1345.50000    4.62697
1346.00000    4.62160
1346.50000    4.60644
1347.00000    4.58224
1347.50000    4.54980
1348.00000    4.50997
1348.50000    4.46362
1349.00000    4.41159
1349.50000    4.35469
1350.00000    4.29368
1350.50000    4.22925
1351.00000    4.16198
1351.50000    4.09238
1352.00000    4.02084
1352.50000    3.94766
1353.00000    3.87302
1353.50000    3.79704
1354.00000    3.71975
1354.50000    3.64111
1355.00000    3.56105
1355.50000    3.47945
1356.00000    3.39620
1356.50000    3.31121
1357.00000    3.22441
1357.50000    3.13578
1358.00000    3.04536
1358.50000    2.95328
1359.00000    2.85973
1359.50000    2.76500
1360.00000    2.66946
1360.50000    2.57355
1361.00000    2.47780
1361.50000    2.38277
1362.00000    2.28911
1362.50000    2.19744
1363.00000    2.10846
1363.50000    2.02279
1364.00000    1.94109
1364.50000    1.86393
1365.00000    1.79182
1365.50000    1.72523
1366.00000    1.66449
1366.50000    1.60988
1367.00000    1.56154
1367.50000    1.51952
1368.00000    1.48379
1368.50000    1.45420
1369.00000    1.43052
1369.50000    1.41244
1370.00000    1.39958
1370.50000    1.39150
1371.00000    1.38772
1371.50000    1.38774
1372.00000    1.39101
1372.50000    1.39698
1373.00000    1.40511
1373.50000    1.41484
1374.00000    1.42562
1374.50000    1.43694
1375.00000    1.44826
1375.50000    1.45910
1376.00000    1.46897
1376.50000    1.47739
1377.00000    1.48393
1377.50000    1.48815
1378.00000    1.48966
1378.50000    1.48807
1379.00000    1.48304
1379.50000    1.47425
1380.00000    1.46145
1380.50000    1.44443
1381.00000    1.42301
1381.50000    1.39711
1382.00000    1.36670
1382.50000    1.33184
1383.00000    1.29263
1383.50000    1.24930
1384.00000    1.20210
1384.50000    1.15137
1385.00000    1.09752
1385.50000    1.04099
1386.00000    0.98226
1386.50000    0.92183
1387.00000    0.86022
1387.50000    0.79793
1388.00000    0.73544
1388.50000    0.67319
1389.00000    0.61161
1389.50000    0.55104
1390.00000    0.49180
1390.50000    0.43414
1391.00000    0.37825
1391.50000    0.32429
1392.00000    0.27237
1392.50000    0.22255
1393.00000    0.17488
1393.50000    0.12942
1394.00000    0.08619
1394.50000    0.04524
1395.00000    0.00665
1395.50000   -0.02951
1396.00000   -0.06312
1396.50000   -0.09404
1397.00000   -0.12212
1397.50000   -0.14719
1398.00000   -0.16906
1398.50000   -0.18756
1399.00000   -0.20254
1399.50000   -0.21387
1400.00000   -0.22145
1400.50000   -0.22524
1401.00000   -0.22528
1401.50000   -0.22163
1402.00000   -0.21445
1402.50000   -0.20398
1403.00000   -0.19051
1403.50000   -0.17439
1404.00000   -0.15604
1404.50000   -0.13591
1405.00000   -0.11449
1405.50000   -0.09227
1406.00000   -0.06976
1406.50000   -0.04745
1407.00000   -0.02582
1407.50000   -0.00530
1408.00000    0.01369
1408.50000    0.03082
1409.00000    0.04577
1409.50000    0.05831
1410.00000    0.06825
1410.50000    0.07546
1411.00000    0.07986
1411.50000    0.08143
1412.00000    0.08020
1412.50000    0.07624
1413.00000    0.06966
1413.50000    0.06063
1414.00000    0.04933
1414.50000    0.03597
1415.00000    0.02083
1415.50000    0.00417
1416.00000   -0.01370
1416.50000   -0.03246
1417.00000   -0.05178
1417.50000   -0.07132
1418.00000   -0.09073
1418.50000   -0.10968
1419.00000   -0.12785
1419.50000   -0.14493
1420.00000   -0.16066
1420.50000   -0.17482
1421.00000   -0.18721
1421.50000   -0.19771
1422.00000   -0.20626
1422.50000   -0.21281
1423.00000   -0.21742
1423.50000   -0.22016
1424.00000   -0.22115
1424.50000   -0.22055
1425.00000   -0.21854
1425.50000   -0.21528
1426.00000   -0.21096
1426.50000   -0.20572
1427.00000   -0.19969
1427.50000   -0.19294
1428.00000   -0.18552
1428.50000   -0.17739
1429.00000   -0.16850
1429.50000   -0.15872
1430.00000   -0.14789
1430.50000   -0.13582
1431.00000   -0.12230
1431.50000   -0.10713
1432.00000   -0.09011
1432.50000   -0.07109
1433.00000   -0.04996
1433.50000   -0.02669
1434.00000   -0.00131
1434.50000    0.02604
1435.00000    0.05515
1435.50000    0.08572
1436.00000    0.11736
1436.50000    0.14961
1437.00000    0.18196
1437.50000    0.21383
1438.00000    0.24465
1438.50000    0.27381
1439.00000    0.30075
1439.50000    0.32493
1440.00000    0.34588
1440.50000    0.36318
1441.00000    0.37652
1441.50000    0.38569
1442.00000    0.39056
1442.50000    0.39113
1443.00000    0.38748
1443.50000    0.37981
1444.00000    0.36836
1444.50000    0.35349
1445.00000    0.33560
1445.50000    0.31513
1446.00000    0.29258
1446.50000    0.26845
1447.00000    0.24326
1447.50000    0.21753
1448.00000    0.19177
1448.50000    0.16644
1449.00000    0.14203
1449.50000    0.11893
1450.00000    0.09754
1450.50000    0.07819
1451.00000    0.06115
1451.50000    0.04665
1452.00000    0.03486
1452.50000    0.02586
1453.00000    0.01971
1453.50000    0.01635
1454.00000    0.01568
1454.50000    0.01752
1455.00000    0.02163
1455.50000    0.02770
1456.00000    0.03536
1456.50000    0.04422
1457.00000    0.05383
1457.50000    0.06371
1458.00000    0.07341
1458.50000    0.08246
1459.00000    0.09042
1459.50000    0.09691
1460.00000    0.10160
1460.50000    0.10422
1461.00000    0.10461
1461.50000    0.10267
1462.00000    0.09842
1462.50000    0.09196
1463.00000    0.08347
1463.50000    0.07321
1464.00000    0.06150
1464.50000    0.04870
1465.00000    0.03520
1465.50000    0.02141
1466.00000    0.00772
1466.50000   -0.00552
1467.00000   -0.01799
1467.50000   -0.02941
1468.00000   -0.03960
1468.50000   -0.04841
1469.00000   -0.05580
1469.50000   -0.06177
1470.00000   -0.06640
1470.50000   -0.06982
1471.00000   -0.07219
1471.50000   -0.07371
1472.00000   -0.07459
1472.50000   -0.07504
1473.00000   -0.07525
1473.50000   -0.07540
1474.00000   -0.07563
1474.50000   -0.07605
1475.00000   -0.07672
1475.50000   -0.07768
1476.00000   -0.07894
1476.50000   -0.08046
1477.00000   -0.08220
1477.50000   -0.08409
1478.00000   -0.08607
1478.50000   -0.08808
1479.00000   -0.09005
1479.50000   -0.09194
1480.00000   -0.09372
1480.50000   -0.09539
1481.00000   -0.09696
1481.50000   -0.09845
1482.00000   -0.09990
1482.50000   -0.10136
1483.00000   -0.10288
1483.50000   -0.10450
1484.00000   -0.10626
1484.50000   -0.10820
1485.00000   -0.11031
1485.50000   -0.11259
1486.00000   -0.11501
1486.50000   -0.11753
1487.00000   -0.12009
1487.50000   -0.12260
1488.00000   -0.12499
1488.50000   -0.12715
1489.00000   -0.12898
1489.50000   -0.13039
1490.00000   -0.13127
1490.50000   -0.13155
1491.00000   -0.13115
1491.50000   -0.13000
1492.00000   -0.12805
1492.50000   -0.12529
1493.00000   -0.12169
1493.50000   -0.11727
1494.00000   -0.11204
1494.50000   -0.10606
1495.00000   -0.09938
1495.50000   -0.09208
1496.00000   -0.08427
1496.50000   -0.07604
1497.00000   -0.06753
1497.50000   -0.05886
1498.00000   -0.05017
1498.50000   -0.04162
1499.00000   -0.03335
1499.50000   -0.02549
1500.00000   -0.01819
1500.50000   -0.01156
1501.00000   -0.00570
1501.50000   -0.00069
1502.00000    0.00340
1502.50000    0.00655
1503.00000    0.00874
1503.50000    0.01000
1504.00000    0.01038
1504.50000    0.00992
1505.00000    0.00870
1505.50000    0.00681
1506.00000    0.00432
1506.50000    0.00132
1507.00000   -0.00212
1507.50000   -0.00594
1508.00000   -0.01011
1508.50000   -0.01460
1509.00000   -0.01940
1509.50000   -0.02453
1510.00000   -0.03003
1510.50000   -0.03592
1511.00000   -0.04224
1511.50000   -0.04904
1512.00000   -0.05633
1512.50000   -0.06413
1513.00000   -0.07241
1513.50000   -0.08113
1514.00000   -0.09021
1514.50000   -0.09954
1515.00000   -0.10899
1515.50000   -0.11839
1516.00000   -0.12757
1516.50000   -0.13633
1517.00000   -0.14448
1517.50000   -0.15184
1518.00000   -0.15823
1518.50000   -0.16352
1519.00000   -0.16759
1519.50000   -0.17035
1520.00000   -0.17178
1520.50000   -0.17188
1521.00000   -0.17068
1521.50000   -0.16825
1522.00000   -0.16471
1522.50000   -0.16015
1523.00000   -0.15471
1523.50000   -0.14851
1524.00000   -0.14166
1524.50000   -0.13427
1525.00000   -0.12639
1525.50000   -0.11808
1526.00000   -0.10935
1526.50000   -0.10020
1527.00000   -0.09059
1527.50000   -0.08047
1528.00000   -0.06978
1528.50000   -0.05848
1529.00000   -0.04650
1529.50000   -0.03383
1530.00000   -0.02046
1530.50000   -0.00641
1531.00000    0.00825
1531.50000    0.02343
1532.00000    0.03898
1532.50000    0.05473
1533.00000    0.07051
1533.50000    0.08611
1534.00000    0.10133
1534.50000    0.11596
1535.00000    0.12986
1535.50000    0.14288
1536.00000    0.15495
1536.50000    0.16602
1537.00000    0.17613
1537.50000    0.18536
1538.00000    0.19385
1538.50000    0.20178
1539.00000    0.20938
1539.50000    0.21689
1540.00000    0.22458
1540.50000    0.23270
1541.00000    0.24146
1541.50000    0.25104
1542.00000    0.26157
1542.50000    0.27307
1543.00000    0.28551
1543.50000    0.29875
1544.00000    0.31254
1544.50000    0.32656
1545.00000    0.34039
1545.50000    0.35355
1546.00000    0.36551
1546.50000    0.37568
1547.00000    0.38349
1547.50000    0.38839
1548.00000    0.38986
1548.50000    0.38743
1549.00000    0.38075
1549.50000    0.36955
1550.00000    0.35369
1550.50000    0.33315
1551.00000    0.30805
1551.50000    0.27864
1552.00000    0.24528
1552.50000    0.20846
1553.00000    0.16874
1553.50000    0.12680
1554.00000    0.08332
1554.50000    0.03905
1555.00000   -0.00528
1555.50000   -0.04893
1556.00000   -0.09124
1556.50000   -0.13156
1557.00000   -0.16934
1557.50000   -0.20409
1558.00000   -0.23541
1558.50000   -0.26296
1559.00000   -0.28651
1559.50000   -0.30588
1560.00000   -0.32095
1560.50000   -0.33165
1561.00000   -0.33797
1561.50000   -0.33990
1562.00000   -0.33747
1562.50000   -0.33071
1563.00000   -0.31966
1563.50000   -0.30435
1564.00000   -0.28480
1564.50000   -0.26105
1565.00000   -0.23309
1565.50000   -0.20095
1566.00000   -0.16463
1566.50000   -0.12413
1567.00000   -0.07947
1567.50000   -0.03063
1568.00000    0.02239
1568.50000    0.07959
1569.00000    0.14102
1569.50000    0.20672
1570.00000    0.27678
1570.50000    0.35130
1571.00000    0.43044
1571.50000    0.51439
1572.00000    0.60338
1572.50000    0.69769
1573.00000    0.79762
1573.50000    0.90351
1574.00000    1.01568
1574.50000    1.13448
1575.00000    1.26020
1575.50000    1.39313
1576.00000    1.53344
1576.50000    1.68126
1577.00000    1.83659
1577.50000    1.99931
1578.00000    2.16919
1578.50000    2.34584
1579.00000    2.52875
1579.50000    2.71727
1580.00000    2.91065
1580.50000    3.10800
1581.00000    3.30837
1581.50000    3.51072
1582.00000    3.71398
1582.50000    3.91703
1583.00000    4.11874
1583.50000    4.31800
1584.00000    4.51371
1584.50000    4.70478
1585.00000    4.89020
1585.50000    5.06894
1586.00000    5.24005
1586.50000    5.40259
1587.00000    5.55567
1587.50000    5.69840
1588.00000    5.82993
1588.50000    5.94942
1589.00000    6.05605
1589.50000    6.14902
1590.00000    6.22758
1590.50000    6.29100
1591.00000    6.33861
1591.50000    6.36983
1592.00000    6.38418
1592.50000    6.38131
1593.00000    6.36098
1593.50000    6.32315
1594.00000    6.26794
1594.50000    6.19564
1595.00000    6.10677
1595.50000    6.00203
1596.00000    5.88228
1596.50000    5.74860
1597.00000    5.60220
1597.50000    5.44441
1598.00000    5.27671
1598.50000    5.10060
1599.00000    4.91767
1599.50000    4.72949
1600.00000    4.53762
1600.50000    4.34356
1601.00000    4.14874
1601.50000    3.95451
1602.00000    3.76211
1602.50000    3.57264
1603.00000    3.38713
1603.50000    3.20646
1604.00000    3.03142
1604.50000    2.86267
1605.00000    2.70082
1605.50000    2.54635
1606.00000    2.39969
1606.50000    2.26120
1607.00000    2.13116
1607.50000    2.00982
1608.00000    1.89733
1608.50000    1.79383
1609.00000    1.69937
1609.50000    1.61394
1610.00000    1.53748
1610.50000    1.46982
1611.00000    1.41076
1611.50000    1.36000
1612.00000    1.31717
1612.50000    1.28184
1613.00000    1.25352
1613.50000    1.23167
1614.00000    1.21571
1614.50000    1.20505
1615.00000    1.19909
1615.50000    1.19725
1616.00000    1.19897
1616.50000    1.20373
1617.00000    1.21108
1617.50000    1.22060
1618.00000    1.23198
1618.50000    1.24492
1619.00000    1.25924
1619.50000    1.27477
1620.00000    1.29140
1620.50000    1.30907
1621.00000    1.32771
1621.50000    1.34725
1622.00000    1.36761
1622.50000    1.38867
1623.00000    1.41025
1623.50000    1.43212
1624.00000    1.45398
1624.50000    1.47545
1625.00000    1.49607
1625.50000    1.51535
1626.00000    1.53271
1626.50000    1.54755
1627.00000    1.55926
1627.50000    1.56721
1628.00000    1.57080
1628.50000    1.56948
1629.00000    1.56276
1629.50000    1.55024
1630.00000    1.53163
1630.50000    1.50673
1631.00000    1.47547
1631.50000    1.43793
1632.00000    1.39431
1632.50000    1.34491
1633.00000    1.29018
1633.50000    1.23064
1634.00000    1.16692
1634.50000    1.09972
1635.00000    1.02975
1635.50000    0.95777
1636.00000    0.88455
1636.50000    0.81082
1637.00000    0.73729
1637.50000    0.66462
1638.00000    0.59338
1638.50000    0.52411
1639.00000    0.45724
1639.50000    0.39312
1640.00000    0.33204
1640.50000    0.27419
1641.00000    0.21971
1641.50000    0.16866
1642.00000    0.12104
1642.50000    0.07683
1643.00000    0.03593
1643.50000   -0.00174
1644.00000   -0.03630
1644.50000   -0.06789
1645.00000   -0.09664
1645.50000   -0.12265
1646.00000   -0.14605
1646.50000   -0.16694
1647.00000   -0.18539
1647.50000   -0.20148
1648.00000   -0.21526
1648.50000   -0.22676
1649.00000   -0.23601
1649.50000   -0.24304
1650.00000   -0.24785
1650.50000   -0.25047
1651.00000   -0.25091
1651.50000   -0.24920
1652.00000   -0.24539
1652.50000   -0.23954
1653.00000   -0.23171
1653.50000   -0.22202
1654.00000   -0.21057
1654.50000   -0.19751
1655.00000   -0.18299
1655.50000   -0.16719
1656.00000   -0.15030
1656.50000   -0.13251
1657.00000   -0.11402
1657.50000   -0.09503
1658.00000   -0.07572
1658.50000   -0.05626
1659.00000   -0.03681
1659.50000   -0.01749
1660.00000    0.00160
1660.50000    0.02040
1661.00000    0.03887
1661.50000    0.05701
1662.00000    0.07483
1662.50000    0.09237
1663.00000    0.10968
1663.50000    0.12682
1664.00000    0.14385
1664.50000    0.16080
1665.00000    0.17770
1665.50000    0.19455
1666.00000    0.21132
1666.50000    0.22794
1667.00000    0.24432
1667.50000    0.26030
1668.00000    0.27571
1668.50000    0.29035
1669.00000    0.30398
1669.50000    0.31634
1670.00000    0.32719
1670.50000    0.33625
1671.00000    0.34329
1671.50000    0.34809
1672.00000    0.35044
1672.50000    0.35021
1673.00000    0.34730
1673.50000    0.34165
1674.00000    0.33328
1674.50000    0.32225
1675.00000    0.30869
1675.50000    0.29275
1676.00000    0.27467
1676.50000    0.25469
1677.00000    0.23311
1677.50000    0.21023
1678.00000    0.18638
1678.50000    0.16188
1679.00000    0.13705
1679.50000    0.11219
1680.00000    0.08758
1680.50000    0.06347
1681.00000    0.04008
1681.50000    0.01758
1682.00000   -0.00390
1682.50000   -0.02428
1683.00000   -0.04353
1683.50000   -0.06165
1684.00000   -0.07867
1684.50000   -0.09469
1685.00000   -0.10982
1685.50000   -0.12418
1686.00000   -0.13793
1686.50000   -0.15120
1687.00000   -0.16416
1687.50000   -0.17692
1688.00000   -0.18961
1688.50000   -0.20230
1689.00000   -0.21504
1689.50000   -0.22783
1690.00000   -0.24062
1690.50000   -0.25333
1691.00000   -0.26581
1691.50000   -0.27789
1692.00000   -0.28932
1692.50000   -0.29984
1693.00000   -0.30916
1693.50000   -0.31697
1694.00000   -0.32294
1694.50000   -0.32676
1695.00000   -0.32813
1695.50000   -0.32677
1696.00000   -0.32245
1696.50000   -0.31501
1697.00000   -0.30433
1697.50000   -0.29037
1698.00000   -0.27319
1698.50000   -0.25291
1699.00000   -0.22974
1699.50000   -0.20400
1700.00000   -0.17605
1700.50000   -0.14635
1701.00000   -0.11540
1701.50000   -0.08377
1702.00000   -0.05203
1702.50000   -0.02080
1703.00000    0.00933
1703.50000    0.03778
1704.00000    0.06401
1704.50000    0.08754
1705.00000    0.10796
1705.50000    0.12494
1706.00000    0.13826
1706.50000    0.14777
1707.00000    0.15347
1707.50000    0.15542
1708.00000    0.15380
1708.50000    0.14890
1709.00000    0.14105
1709.50000    0.13067
1710.00000    0.11822
1710.50000    0.10420
1711.00000    0.08909
1711.50000    0.07339
1712.00000    0.05754
1712.50000    0.04195
1713.00000    0.02697
1713.50000    0.01288
1714.00000   -0.00010
1714.50000   -0.01185
1715.00000   -0.02230
1715.50000   -0.03144
1716.00000   -0.03933
1716.50000   -0.04606
1717.00000   -0.05175
1717.50000   -0.05654
1718.00000   -0.06055
1718.50000   -0.06393
1719.00000   -0.06676
1719.50000   -0.06913
1720.00000   -0.07108
1720.50000   -0.07263
1721.00000   -0.07376
1721.50000   -0.07444
1722.00000   -0.07460
1722.50000   -0.07419
1723.00000   -0.07314
1723.50000   -0.07142
1724.00000   -0.06900
1724.50000   -0.06588
1725.00000   -0.06212
1725.50000   -0.05777
1726.00000   -0.05293
1726.50000   -0.04774
1727.00000   -0.04230
1727.50000   -0.03676
1728.00000   -0.03124
1728.50000   -0.02584
1729.00000   -0.02061
1729.50000   -0.01557
1730.00000   -0.01070
1730.50000   -0.00592
1731.00000   -0.00109
1731.50000    0.00393
1732.00000    0.00936
1732.50000    0.01540
1733.00000    0.02225
1733.50000    0.03011
1734.00000    0.03910
1734.50000    0.04931
1735.00000    0.06074
1735.50000    0.07329
1736.00000    0.08677
1736.50000    0.10089
1737.00000    0.11524
1737.50000    0.12935
1738.00000    0.14265
1738.50000    0.15453
1739.00000    0.16438
1739.50000    0.17158
1740.00000    0.17554
1740.50000    0.17579
1741.00000    0.17192
1741.50000    0.16367
1742.00000    0.15095
1742.50000    0.13380
1743.00000    0.11244
1743.50000    0.08728
1744.00000    0.05886
1744.50000    0.02789
1745.00000   -0.00482
1745.50000   -0.03838
1746.00000   -0.07183
1746.50000   -0.10419
1747.00000   -0.13453
1747.50000   -0.16193
1748.00000   -0.18561
1748.50000   -0.20487
1749.00000   -0.21918
1749.50000   -0.22816
1750.00000   -0.23163
1750.50000   -0.22954
1751.00000   -0.22207
1751.50000   -0.20952
1752.00000   -0.19235
1752.50000   -0.17114
1753.00000   -0.14657
1753.50000   -0.11938
1754.00000   -0.09033
1754.50000   -0.06022
1755.00000   -0.02980
1755.50000    0.00023
1756.00000    0.02921
1756.50000    0.05658
1757.00000    0.08189
1757.50000    0.10476
1758.00000    0.12495
1758.50000    0.14229
1759.00000    0.15674
1759.50000    0.16834
1760.00000    0.17718
1760.50000    0.18347
1761.00000    0.18743
1761.50000    0.18934
1762.00000    0.18950
1762.50000    0.18821
1763.00000    0.18578
1763.50000    0.18251
1764.00000    0.17869
1764.50000    0.17456
1765.00000    0.17034
1765.50000    0.16621
1766.00000    0.16231
1766.50000    0.15876
1767.00000    0.15561
1767.50000    0.15289
1768.00000    0.15058
1768.50000    0.14864
1769.00000    0.14698
1769.50000    0.14549
1770.00000    0.14403
1770.50000    0.14243
1771.00000    0.14052
1771.50000    0.13809
1772.00000    0.13494
1772.50000    0.13087
1773.00000    0.12567
1773.50000    0.11916
1774.00000    0.11116
1774.50000    0.10153
1775.00000    0.09018
1775.50000    0.07702
1776.00000    0.06204
1776.50000    0.04527
1777.00000    0.02680
1777.50000    0.00675
1778.00000   -0.01468
1778.50000   -0.03725
1779.00000   -0.06067
1779.50000   -0.08461
1780.00000   -0.10873
1780.50000   -0.13265
1781.00000   -0.15599
1781.50000   -0.17838
1782.00000   -0.19944
1782.50000   -0.21884
1783.00000   -0.23628
1783.50000   -0.25150
1784.00000   -0.26429
1784.50000   -0.27449
1785.00000   -0.28202
1785.50000   -0.28681
1786.00000   -0.28889
1786.50000   -0.28830
1787.00000   -0.28514
1787.50000   -0.27956
1788.00000   -0.27169
1788.50000   -0.26173
1789.00000   -0.24986
1789.50000   -0.23627
1790.00000   -0.22113
1790.50000   -0.20462
1791.00000   -0.18689
1791.50000   -0.16806
1792.00000   -0.14826
1792.50000   -0.12756
1793.00000   -0.10605
1793.50000   -0.08377
1794.00000   -0.06078
1794.50000   -0.03712
1795.00000   -0.01282
1795.50000    0.01206
1796.00000    0.03747
1796.50000    0.06330
1797.00000    0.08947
1797.50000    0.11584
1798.00000    0.14226
1798.50000    0.16852
1799.00000    0.19444
1799.50000    0.21975
1800.00000    0.24421
1800.50000    0.26754
1801.00000    0.28945
1801.50000    0.30967
1802.00000    0.32789
1802.50000    0.34386
1803.00000    0.35731
1803.50000    0.36801
1804.00000    0.37577
1804.50000    0.38043
1805.00000    0.38186
1805.50000    0.37998
1806.00000    0.37479
1806.50000    0.36629
1807.00000    0.35455
1807.50000    0.33971
1808.00000    0.32191
1808.50000    0.30137
1809.00000    0.27831
1809.50000    0.25302
1810.00000    0.22579
1810.50000    0.19691
1811.00000    0.16672
1811.50000    0.13553
1812.00000    0.10365
1812.50000    0.07140
1813.00000    0.03906
1813.50000    0.00689
1814.00000   -0.02486
1814.50000   -0.05597
1815.00000   -0.08626
1815.50000   -0.11556
1816.00000   -0.14373
1816.50000   -0.17065
1817.00000   -0.19622
1817.50000   -0.22036
1818.00000   -0.24297
1818.50000   -0.26398
1819.00000   -0.28332
1819.50000   -0.30089
1820.00000   -0.31661
1820.50000   -0.33037
1821.00000   -0.34207
1821.50000   -0.35160
1822.00000   -0.35885
1822.50000   -0.36370
1823.00000   -0.36606
1823.50000   -0.36585
1824.00000   -0.36302
1824.50000   -0.35756
1825.00000   -0.34950
1825.50000   -0.33891
1826.00000   -0.32594
1826.50000   -0.31077
1827.00000   -0.29364
1827.50000   -0.27484
1828.00000   -0.25471
1828.50000   -0.23358
1829.00000   -0.21183
1829.50000   -0.18982
1830.00000   -0.16789
1830.50000   -0.14631
1831.00000   -0.12532
1831.50000   -0.10508
1832.00000   -0.08566
1832.50000   -0.06701
1833.00000   -0.04900
1833.50000   -0.03139
1834.00000   -0.01384
1834.50000    0.00408
1835.00000    0.02288
1835.50000    0.04309
1836.00000    0.06528
1836.50000    0.09003
1837.00000    0.11788
1837.50000    0.14931
1838.00000    0.18470
1838.50000    0.22435
1839.00000    0.26840
1839.50000    0.31686
1840.00000    0.36958
1840.50000    0.42625
1841.00000    0.48641
1841.50000    0.54946
1842.00000    0.61468
1842.50000    0.68124
1843.00000    0.74824
1843.50000    0.81473
1844.00000    0.87973
1844.50000    0.94228
1845.00000    1.00146
1845.50000    1.05639
1846.00000    1.10627
1846.50000    1.15041
1847.00000    1.18819
1847.50000    1.21915
1848.00000    1.24288
1848.50000    1.25914
1849.00000    1.26776
1849.50000    1.26869
1850.00000    1.26197
1850.50000    1.24775
1851.00000    1.22623
1851.50000    1.19771
1852.00000    1.16255
1852.50000    1.12118
1853.00000    1.07407
1853.50000    1.02178
1854.00000    0.96490
1854.50000    0.90408
1855.00000    0.84003
1855.50000    0.77347
1856.00000    0.70520
1856.50000    0.63602
1857.00000    0.56676
1857.50000    0.49827
1858.00000    0.43136
1858.50000    0.36683
1859.00000    0.30546
1859.50000    0.24794
1860.00000    0.19489
1860.50000    0.14685
1861.00000    0.10425
1861.50000    0.06740
1862.00000    0.03649
1862.50000    0.01160
1863.00000   -0.00733
1863.50000   -0.02047
1864.00000   -0.02807
1864.50000   -0.03052
1865.00000   -0.02825
1865.50000   -0.02178
1866.00000   -0.01166
1866.50000    0.00153
1867.00000    0.01717
1867.50000    0.03468
1868.00000    0.05346
1868.50000    0.07295
1869.00000    0.09263
1869.50000    0.11201
1870.00000    0.13063
1870.50000    0.14810
1871.00000    0.16405
1871.50000    0.17815
1872.00000    0.19014
1872.50000    0.19976
1873.00000    0.20680
1873.50000    0.21109
1874.00000    0.21250
1874.50000    0.21092
1875.00000    0.20629
1875.50000    0.19858
1876.00000    0.18781
1876.50000    0.17406
1877.00000    0.15743
1877.50000    0.13811
1878.00000    0.11631
1878.50000    0.09231
1879.00000    0.06643
1879.50000    0.03903
1880.00000    0.01051
1880.50000   -0.01870
1881.00000   -0.04816
1881.50000   -0.07742
1882.00000   -0.10602
1882.50000   -0.13352
1883.00000   -0.15951
1883.50000   -0.18361
1884.00000   -0.20544
1884.50000   -0.22471
1885.00000   -0.24112
1885.50000   -0.25445
1886.00000   -0.26449
1886.50000   -0.27108
1887.00000   -0.27410
1887.50000   -0.27344
1888.00000   -0.26902
1888.50000   -0.26078
1889.00000   -0.24870
1889.50000   -0.23275
1890.00000   -0.21293
1890.50000   -0.18929
1891.00000   -0.16187
1891.50000   -0.13077
1892.00000   -0.09612
1892.50000   -0.05813
1893.00000   -0.01703
1893.50000    0.02687
1894.00000    0.07320
1894.50000    0.12154
1895.00000    0.17137
1895.50000    0.22217
1896.00000    0.27333
1896.50000    0.32425
1897.00000    0.37428
1897.50000    0.42280
1898.00000    0.46920
1898.50000    0.51293
1899.00000    0.55347
1899.50000    0.59042
1900.00000    0.62344
1900.50000    0.65232
1901.00000    0.67696
1901.50000    0.69737
1902.00000    0.71368
1902.50000    0.72615
1903.00000    0.73512
1903.50000    0.74105
1904.00000    0.74447
1904.50000    0.74596
1905.00000    0.74615
1905.50000    0.74570
1906.00000    0.74526
1906.50000    0.74548
1907.00000    0.74695
1907.50000    0.75023
1908.00000    0.75580
1908.50000    0.76405
1909.00000    0.77529
1909.50000    0.78973
1910.00000    0.80744
1910.50000    0.82841
1911.00000    0.85251
1911.50000    0.87949
1912.00000    0.90898
1912.50000    0.94053
1913.00000    0.97359
1913.50000    1.00754
1914.00000    1.04170
1914.50000    1.07535
1915.00000    1.10774
1915.50000    1.13813
1916.00000    1.16584
1916.50000    1.19019
1917.00000    1.21063
1917.50000    1.22667
1918.00000    1.23796
1918.50000    1.24427
1919.00000    1.24552
1919.50000    1.24177
1920.00000    1.23320
1920.50000    1.22013
1921.00000    1.20298
1921.50000    1.18227
1922.00000    1.15856
1922.50000    1.13244
1923.00000    1.10450
1923.50000    1.07530
1924.00000    1.04531
1924.50000    1.01492
1925.00000    0.98441
1925.50000    0.95392
1926.00000    0.92348
1926.50000    0.89299
1927.00000    0.86224
1927.50000    0.83092
1928.00000    0.79868
1928.50000    0.76512
1929.00000    0.72986
1929.50000    0.69257
1930.00000    0.65297
1930.50000    0.61089
1931.00000    0.56630
1931.50000    0.51927
1932.00000    0.47002
1932.50000    0.41891
1933.00000    0.36639
1933.50000    0.31301
1934.00000    0.25939
1934.50000    0.20618
1935.00000    0.15401
1935.50000    0.10351
1936.00000    0.05523
1936.50000    0.00964
1937.00000   -0.03289
1937.50000   -0.07210
1938.00000   -0.10781
1938.50000   -0.13997
1939.00000   -0.16860
1939.50000   -0.19379
1940.00000   -0.21569
1940.50000   -0.23442
1941.00000   -0.25016
1941.50000   -0.26300
1942.00000   -0.27303
1942.50000   -0.28027
1943.00000   -0.28470
1943.50000   -0.28622
1944.00000   -0.28473
1944.50000   -0.28009
1945.00000   -0.27215
1945.50000   -0.26082
1946.00000   -0.24604
1946.50000   -0.22785
1947.00000   -0.20636
1947.50000   -0.18184
1948.00000   -0.15464
1948.50000   -0.12524
1949.00000   -0.09422
1949.50000   -0.06226
1950.00000   -0.03007
1950.50000    0.00159
1951.00000    0.03198
1951.50000    0.06043
1952.00000    0.08632
1952.50000    0.10915
1953.00000    0.12858
1953.50000    0.14439
1954.00000    0.15654
1954.50000    0.16512
1955.00000    0.17041
1955.50000    0.17277
1956.00000    0.17271
1956.50000    0.17076
1957.00000    0.16754
1957.50000    0.16365
1958.00000    0.15965
1958.50000    0.15606
1959.00000    0.15332
1959.50000    0.15176
1960.00000    0.15161
1960.50000    0.15298
1961.00000    0.15584
1961.50000    0.16009
1962.00000    0.16553
1962.50000    0.17187
1963.00000    0.17876
1963.50000    0.18585
1964.00000    0.19273
1964.50000    0.19902
1965.00000    0.20434
1965.50000    0.20834
1966.00000    0.21070
1966.50000    0.21116
1967.00000    0.20947
1967.50000    0.20544
1968.00000    0.19889
1968.50000    0.18971
1969.00000    0.17780
1969.50000    0.16310
1970.00000    0.14559
1970.50000    0.12529
1971.00000    0.10226
1971.50000    0.07663
1972.00000    0.04858
1972.50000    0.01838
1973.00000   -0.01363
1973.50000   -0.04701
1974.00000   -0.08123
1974.50000   -0.11569
1975.00000   -0.14970
1975.50000   -0.18250
1976.00000   -0.21327
1976.50000   -0.24117
1977.00000   -0.26536
1977.50000   -0.28502
1978.00000   -0.29937
1978.50000   -0.30774
1979.00000   -0.30954
1979.50000   -0.30434
1980.00000   -0.29185
1980.50000   -0.27196
1981.00000   -0.24473
1981.50000   -0.21038
1982.00000   -0.16934
1982.50000   -0.12216
1983.00000   -0.06954
1983.50000   -0.01228
1984.00000    0.04874
1984.50000    0.11259
1985.00000    0.17832
1985.50000    0.24502
1986.00000    0.31181
1986.50000    0.37788
1987.00000    0.44251
1987.50000    0.50509
1988.00000    0.56511
1988.50000    0.62217
1989.00000    0.67596
1989.50000    0.72625
1990.00000    0.77288
1990.50000    0.81573
1991.00000    0.85471
1991.50000    0.88972
1992.00000    0.92066
1992.50000    0.94740
1993.00000    0.96978
1993.50000    0.98761
1994.00000    1.00066
1994.50000    1.00869
1995.00000    1.01148
1995.50000    1.00881
1996.00000    1.00051
1996.50000    0.98648
1997.00000    0.96671
1997.50000    0.94132
1998.00000    0.91054
1998.50000    0.87474
1999.00000    0.83447
1999.50000    0.79037
2000.00000    0.74323
2000.50000    0.69397
2001.00000    0.64355
2001.50000    0.59301
2002.00000    0.54338
2002.50000    0.49567
2003.00000    0.45083
2003.50000    0.40967
2004.00000    0.37287
2004.50000    0.34095
2005.00000    0.31421
2005.50000    0.29275
2006.00000    0.27645
2006.50000    0.26498
2007.00000    0.25780
2007.50000    0.25420
2008.00000    0.25334
2008.50000    0.25424
2009.00000    0.25588
2009.50000    0.25720
2010.00000    0.25715
2010.50000    0.25477
2011.00000    0.24915
2011.50000    0.23956
2012.00000    0.22539
2012.50000    0.20621
2013.00000    0.18181
2013.50000    0.15214
2014.00000    0.11735
2014.50000    0.07781
2015.00000    0.03401
2015.50000   -0.01337
2016.00000   -0.06354
2016.50000   -0.11558
2017.00000   -0.16852
2017.50000   -0.22132
2018.00000   -0.27293
2018.50000   -0.32230
2019.00000   -0.36842
2019.50000   -0.41035
2020.00000   -0.44723
2020.50000   -0.47830
2021.00000   -0.50294
2021.50000   -0.52065
2022.00000   -0.53113
2022.50000   -0.53418
2023.00000   -0.52984
2023.50000   -0.51825
2024.00000   -0.49977
2024.50000   -0.47489
2025.00000   -0.44425
2025.50000   -0.40863
2026.00000   -0.36891
2026.50000   -0.32607
2027.00000   -0.28114
2027.50000   -0.23519
2028.00000   -0.18929
2028.50000   -0.14451
2029.00000   -0.10183
2029.50000   -0.06219
2030.00000   -0.02640
2030.50000    0.00485
2031.00000    0.03103
2031.50000    0.05176
2032.00000    0.06684
2032.50000    0.07623
2033.00000    0.08009
2033.50000    0.07876
2034.00000    0.07270
2034.50000    0.06255
2035.00000    0.04906
2035.50000    0.03310
2036.00000    0.01559
2036.50000   -0.00250
2037.00000   -0.02018
2037.50000   -0.03647
2038.00000   -0.05044
2038.50000   -0.06124
2039.00000   -0.06809
2039.50000   -0.07035
2040.00000   -0.06752
2040.50000   -0.05922
2041.00000   -0.04524
2041.50000   -0.02556
2042.00000   -0.00028
2042.50000    0.03034
2043.00000    0.06587
2043.50000    0.10578
2044.00000    0.14940
2044.50000    0.19597
2045.00000    0.24468
2045.50000    0.29464
2046.00000    0.34493
2046.50000    0.39463
2047.00000    0.44284
2047.50000    0.48866
2048.00000    0.53127
2048.50000    0.56989
2049.00000    0.60384
2049.50000    0.63250
2050.00000    0.65537
2050.50000    0.67203
2051.00000    0.68220
2051.50000    0.68568
2052.00000    0.68241
2052.50000    0.67243
2053.00000    0.65589
2053.50000    0.63305
2054.00000    0.60430
2054.50000    0.57009
2055.00000    0.53100
2055.50000    0.48767
2056.00000    0.44083
2056.50000    0.39125
2057.00000    0.33975
2057.50000    0.28719
2058.00000    0.23441
2058.50000    0.18227
2059.00000    0.13157
2059.50000    0.08309
2060.00000    0.03751
2060.50000   -0.00454
2061.00000   -0.04255
2061.50000   -0.07609
2062.00000   -0.10486
2062.50000   -0.12866
2063.00000   -0.14740
2063.50000   -0.16111
2064.00000   -0.16990
2064.50000   -0.17397
2065.00000   -0.17358
2065.50000   -0.16907
2066.00000   -0.16080
2066.50000   -0.14917
2067.00000   -0.13458
2067.50000   -0.11745
2068.00000   -0.09818
2068.50000   -0.07715
2069.00000   -0.05472
2069.50000   -0.03123
2070.00000   -0.00700
2070.50000    0.01769
2071.00000    0.04255
2071.50000    0.06735
2072.00000    0.09183
2072.50000    0.11576
2073.00000    0.13891
2073.50000    0.16105
2074.00000    0.18197
2074.50000    0.20144
2075.00000    0.21924
2075.50000    0.23516
2076.00000    0.24902
2076.50000    0.26062
2077.00000    0.26982
2077.50000    0.27649
2078.00000    0.28053
2078.50000    0.28187
2079.00000    0.28051
2079.50000    0.27647
2080.00000    0.26982
2080.50000    0.26066
2081.00000    0.24916
2081.50000    0.23551
2082.00000    0.21992
2082.50000    0.20266
2083.00000    0.18400
2083.50000    0.16422
2084.00000    0.14361
2084.50000    0.12247
2085.00000    0.10109
2085.50000    0.07972
2086.00000    0.05862
2086.50000    0.03800
2087.00000    0.01804
2087.50000   -0.00111
2088.00000   -0.01933
2088.50000   -0.03654
2089.00000   -0.05270
2089.50000   -0.06779
2090.00000   -0.08181
2090.50000   -0.09478
2091.00000   -0.10673
2091.50000   -0.11768
2092.00000   -0.12767
2092.50000   -0.13667
2093.00000   -0.14468
2093.50000   -0.15164
2094.00000   -0.15749
2094.50000   -0.16210
2095.00000   -0.16534
2095.50000   -0.16708
2096.00000   -0.16714
2096.50000   -0.16537
2097.00000   -0.16161
2097.50000   -0.15574
2098.00000   -0.14769
2098.50000   -0.13741
2099.00000   -0.12494
2099.50000   -0.11037
2100.00000   -0.09387
2100.50000   -0.07569
2101.00000   -0.05613
2101.50000   -0.03556
2102.00000   -0.01441
2102.50000    0.00688
2103.00000    0.02785
2103.50000    0.04804
2104.00000    0.06700
2104.50000    0.08435
2105.00000    0.09973
2105.50000    0.11287
2106.00000    0.12357
2106.50000    0.13169
2107.00000    0.13719
2107.50000    0.14009
2108.00000    0.14045
2108.50000    0.13840
2109.00000    0.13408
2109.50000    0.12767
2110.00000    0.11933
2110.50000    0.10921
2111.00000    0.09744
2111.50000    0.08412
2112.00000    0.06934
2112.50000    0.05314
2113.00000    0.03555
2113.50000    0.01661
2114.00000   -0.00366
2114.50000   -0.02519
2115.00000   -0.04789
2115.50000   -0.07160
2116.00000   -0.09611
2116.50000   -0.12114
2117.00000   -0.14634
2117.50000   -0.17127
2118.00000   -0.19548
2118.50000   -0.21842
2119.00000   -0.23954
2119.50000   -0.25829
2120.00000   -0.27412
2120.50000   -0.28652
2121.00000   -0.29505
2121.50000   -0.29933
2122.00000   -0.29911
2122.50000   -0.29420
2123.00000   -0.28454
2123.50000   -0.27020
2124.00000   -0.25134
2124.50000   -0.22821
2125.00000   -0.20116
2125.50000   -0.17059
2126.00000   -0.13696
2126.50000   -0.10076
2127.00000   -0.06248
2127.50000   -0.02261
2128.00000    0.01840
2128.50000    0.06012
2129.00000    0.10217
2129.50000    0.14422
2130.00000    0.18599
2130.50000    0.22727
2131.00000    0.26788
2131.50000    0.30768
2132.00000    0.34659
2132.50000    0.38454
2133.00000    0.42149
2133.50000    0.45741
2134.00000    0.49228
2134.50000    0.52609
2135.00000    0.55883
2135.50000    0.59049
2136.00000    0.62105
2136.50000    0.65048
2137.00000    0.67875
2137.50000    0.70582
2138.00000    0.73164
2138.50000    0.75616
2139.00000    0.77929
2139.50000    0.80095
2140.00000    0.82104
2140.50000    0.83945
2141.00000    0.85605
2141.50000    0.87069
2142.00000    0.88322
2142.50000    0.89348
2143.00000    0.90130
2143.50000    0.90649
2144.00000    0.90891
2144.50000    0.90839
2145.00000    0.90480
2145.50000    0.89802
2146.00000    0.88798
2146.50000    0.87463
2147.00000    0.85796
2147.50000    0.83801
2148.00000    0.81486
2148.50000    0.78865
2149.00000    0.75955
2149.50000    0.72775
2150.00000    0.69352
2150.50000    0.65713
2151.00000    0.61890
2151.50000    0.57914
2152.00000    0.53819
2152.50000    0.49642
2153.00000    0.45418
2153.50000    0.41183
2154.00000    0.36971
2154.50000    0.32817
2155.00000    0.28755
2155.50000    0.24819
2156.00000    0.21038
2156.50000    0.17446
2157.00000    0.14070
2157.50000    0.10943
2158.00000    0.08092
2158.50000    0.05548
2159.00000    0.03341
2159.50000    0.01502
2160.00000    0.00063
2160.50000   -0.00945
2161.00000   -0.01488
2161.50000   -0.01535
2162.00000   -0.01055
2162.50000   -0.00016
2163.00000    0.01605
2163.50000    0.03832
2164.00000    0.06679
2164.50000    0.10152
2165.00000    0.14249
2165.50000    0.18952
2166.00000    0.24232
2166.50000    0.30045
2167.00000    0.36329
2167.50000    0.43009
2168.00000    0.49990
2168.50000    0.57166
2169.00000    0.64415
2169.50000    0.71606
2170.00000    0.78599
2170.50000    0.85252
2171.00000    0.91422
2171.50000    0.96974
2172.00000    1.01778
2172.50000    1.05722
2173.00000    1.08711
2173.50000    1.10671
2174.00000    1.11552
2174.50000    1.11331
2175.00000    1.10012
2175.50000    1.07624
2176.00000    1.04223
2176.50000    0.99889
2177.00000    0.94719
2177.50000    0.88828
2178.00000    0.82342
2178.50000    0.75395
2179.00000    0.68121
2179.50000    0.60655
2180.00000    0.53125
2180.50000    0.45647
2181.00000    0.38328
2181.50000    0.31258
2182.00000    0.24511
2182.50000    0.18148
2183.00000    0.12210
2183.50000    0.06725
2184.00000    0.01708
2184.50000   -0.02839
2185.00000   -0.06924
2185.50000   -0.10560
2186.00000   -0.13769
2186.50000   -0.16575
2187.00000   -0.19004
2187.50000   -0.21081
2188.00000   -0.22831
2188.50000   -0.24280
2189.00000   -0.25448
2189.50000   -0.26353
2190.00000   -0.27014
2190.50000   -0.27444
2191.00000   -0.27656
2191.50000   -0.27661
2192.00000   -0.27469
2192.50000   -0.27089
2193.00000   -0.26531
2193.50000   -0.25805
2194.00000   -0.24921
2194.50000   -0.23890
2195.00000   -0.22724
2195.50000   -0.21436
2196.00000   -0.20039
2196.50000   -0.18549
2197.00000   -0.16980
2197.50000   -0.15349
2198.00000   -0.13669
2198.50000   -0.11957
2199.00000   -0.10227
2199.50000   -0.08493
2200.00000   -0.06768
2200.50000   -0.05063
2201.00000   -0.03390
2201.50000   -0.01758
2202.00000   -0.00176
2202.50000    0.01348
2203.00000    0.02805
2203.50000    0.04189
2204.00000    0.05490
2204.50000    0.06699
2205.00000    0.07806
2205.50000    0.08800
2206.00000    0.09666
2206.50000    0.10392
2207.00000    0.10961
2207.50000    0.11357
2208.00000    0.11566
2208.50000    0.11571
2209.00000    0.11360
2209.50000    0.10923
2210.00000    0.10252
2210.50000    0.09346
2211.00000    0.08208
2211.50000    0.06845
2212.00000    0.05275
2212.50000    0.03517
2213.00000    0.01600
2213.50000   -0.00445
2214.00000   -0.02579
2214.50000   -0.04763
2215.00000   -0.06953
2215.50000   -0.09104
2216.00000   -0.11174
2216.50000   -0.13120
2217.00000   -0.14905
2217.50000   -0.16492
2218.00000   -0.17853
2218.50000   -0.18965
2219.00000   -0.19808
2219.50000   -0.20372
2220.00000   -0.20651
2220.50000   -0.20645
2221.00000   -0.20358
2221.50000   -0.19800
2222.00000   -0.18983
2222.50000   -0.17921
2223.00000   -0.16630
2223.50000   -0.15129
2224.00000   -0.13432
2224.50000   -0.11557
2225.00000   -0.09518
2225.50000   -0.07327
2226.00000   -0.04995
2226.50000   -0.02531
2227.00000    0.00060
2227.50000    0.02774
2228.00000    0.05608
2228.50000    0.08562
2229.00000    0.11636
2229.50000    0.14828
2230.00000    0.18137
2230.50000    0.21560
2231.00000    0.25089
2231.50000    0.28714
2232.00000    0.32419
2232.50000    0.36182
2233.00000    0.39976
2233.50000    0.43767
2234.00000    0.47515
2234.50000    0.51175
2235.00000    0.54696
2235.50000    0.58024
2236.00000    0.61105
2236.50000    0.63884
2237.00000    0.66309
2237.50000    0.68331
2238.00000    0.69909
2238.50000    0.71010
2239.00000    0.71614
2239.50000    0.71708
2240.00000    0.71294
2240.50000    0.70386
2241.00000    0.69009
2241.50000    0.67199
2242.00000    0.65001
2242.50000    0.62466
2243.00000    0.59651
2243.50000    0.56613
2244.00000    0.53410
2244.50000    0.50094
2245.00000    0.46715
2245.50000    0.43313
2246.00000    0.39922
2246.50000    0.36565
2247.00000    0.33260
2247.50000    0.30013
2248.00000    0.26826
2248.50000    0.23697
2249.00000    0.20619
2249.50000    0.17584
2250.00000    0.14589
2250.50000    0.11630
2251.00000    0.08710
2251.50000    0.05837
2252.00000    0.03024
2252.50000    0.00291
2253.00000   -0.02339
2253.50000   -0.04835
2254.00000   -0.07169
2254.50000   -0.09308
2255.00000   -0.11225
2255.50000   -0.12892
2256.00000   -0.14290
2256.50000   -0.15403
2257.00000   -0.16226
2257.50000   -0.16758
2258.00000   -0.17007
2258.50000   -0.16988
2259.00000   -0.16721
2259.50000   -0.16229
2260.00000   -0.15538
2260.50000   -0.14674
2261.00000   -0.13660
2261.50000   -0.12516
2262.00000   -0.11259
2262.50000   -0.09898
2263.00000   -0.08437
2263.50000   -0.06876
2264.00000   -0.05209
2264.50000   -0.03427
2265.00000   -0.01521
2265.50000    0.00519
2266.00000    0.02699
2266.50000    0.05019
2267.00000    0.07473
2267.50000    0.10046
2268.00000    0.12712
2268.50000    0.15437
2269.00000    0.18174
2269.50000    0.20870
2270.00000    0.23463
2270.50000    0.25887
2271.00000    0.28072
2271.50000    0.29951
2272.00000    0.31461
2272.50000    0.32548
2273.00000    0.33167
2273.50000    0.33288
2274.00000    0.32898
2274.50000    0.32000
2275.00000    0.30616
2275.50000    0.28787
2276.00000    0.26568
2276.50000    0.24032
2277.00000    0.21259
2277.50000    0.18342
2278.00000    0.15373
2278.50000    0.12447
2279.00000    0.09651
2279.50000    0.07065
2280.00000    0.04756
2280.50000    0.02774
2281.00000    0.01151
2281.50000   -0.00101
2282.00000   -0.00988
2282.50000   -0.01538
2283.00000   -0.01796
2283.50000   -0.01821
2284.00000   -0.01684
2284.50000   -0.01465
2285.00000   -0.01244
2285.50000   -0.01105
2286.00000   -0.01123
2286.50000   -0.01364
2287.00000   -0.01883
2287.50000   -0.02718
2288.00000   -0.03891
2288.50000   -0.05404
2289.00000   -0.07243
2289.50000   -0.09374
2290.00000   -0.11750
2290.50000   -0.14312
2291.00000   -0.16987
2291.50000   -0.19701
2292.00000   -0.22374
2292.50000   -0.24927
2293.00000   -0.27288
2293.50000   -0.29390
2294.00000   -0.31177
2294.50000   -0.32605
2295.00000   -0.33643
2295.50000   -0.34272
2296.00000   -0.34490
2296.50000   -0.34305
2297.00000   -0.33737
2297.50000   -0.32817
2298.00000   -0.31583
2298.50000   -0.30081
2299.00000   -0.28359
2299.50000   -0.26467
2300.00000   -0.24457
2300.50000   -0.22379
2301.00000   -0.20280
2301.50000   -0.18202
2302.00000   -0.16186
2302.50000   -0.14265
2303.00000   -0.12467
2303.50000   -0.10816
2304.00000   -0.09329
2304.50000   -0.08019
2305.00000   -0.06893
2305.50000   -0.05952
2306.00000   -0.05192
2306.50000   -0.04606
2307.00000   -0.04179
2307.50000   -0.03894
2308.00000   -0.03725
2308.50000   -0.03647
2309.00000   -0.03628
2309.50000   -0.03633
2310.00000   -0.03625
2310.50000   -0.03565
2311.00000   -0.03416
2311.50000   -0.03139
2312.00000   -0.02701
2312.50000   -0.02070
2313.00000   -0.01224
2313.50000   -0.00144
2314.00000    0.01177
2314.50000    0.02739
2315.00000    0.04529
2315.50000    0.06527
2316.00000    0.08699
2316.50000    0.11004
2317.00000    0.13390
2317.50000    0.15800
2318.00000    0.18170
2318.50000    0.20435
2319.00000    0.22527
2319.50000    0.24383
2320.00000    0.25940
2320.50000    0.27148
2321.00000    0.27960
2321.50000    0.28344
2322.00000    0.28279
2322.50000    0.27758
2323.00000    0.26786
2323.50000    0.25384
2324.00000    0.23584
2324.50000    0.21430
2325.00000    0.18977
2325.50000    0.16286
2326.00000    0.13428
2326.50000    0.10474
2327.00000    0.07498
2327.50000    0.04574
2328.00000    0.01771
2328.50000   -0.00844
2329.00000   -0.03214
2329.50000   -0.05285
2330.00000   -0.07016
2330.50000   -0.08371
2331.00000   -0.09327
2331.50000   -0.09868
2332.00000   -0.09988
2332.50000   -0.09691
2333.00000   -0.08988
2333.50000   -0.07899
2334.00000   -0.06450
2334.50000   -0.04677
2335.00000   -0.02618
2335.50000   -0.00318
2336.00000    0.02171
2336.50000    0.04797
2337.00000    0.07504
2337.50000    0.10232
2338.00000    0.12923
2338.50000    0.15519
2339.00000    0.17962
2339.50000    0.20199
2340.00000    0.22180
2340.50000    0.23862
2341.00000    0.25207
2341.50000    0.26185
2342.00000    0.26775
2342.50000    0.26963
2343.00000    0.26745
2343.50000    0.26123
2344.00000    0.25110
2344.50000    0.23723
2345.00000    0.21986
2345.50000    0.19927
2346.00000    0.17579
2346.50000    0.14977
2347.00000    0.12156
2347.50000    0.09153
2348.00000    0.06006
2348.50000    0.02750
2349.00000   -0.00578
2349.50000   -0.03943
2350.00000   -0.07309
2350.50000   -0.10641
2351.00000   -0.13903
2351.50000   -0.17060
2352.00000   -0.20075
2352.50000   -0.22912
2353.00000   -0.25534
2353.50000   -0.27905
2354.00000   -0.29993
2354.50000   -0.31765
2355.00000   -0.33196
2355.50000   -0.34264
2356.00000   -0.34954
2356.50000   -0.35257
2357.00000   -0.35175
2357.50000   -0.34716
2358.00000   -0.33895
2358.50000   -0.32736
2359.00000   -0.31270
2359.50000   -0.29532
2360.00000   -0.27561
2360.50000   -0.25397
2361.00000   -0.23082
2361.50000   -0.20653
2362.00000   -0.18146
2362.50000   -0.15594
2363.00000   -0.13022
2363.50000   -0.10452
2364.00000   -0.07899
2364.50000   -0.05374
2365.00000   -0.02885
2365.50000   -0.00435
2366.00000    0.01974
2366.50000    0.04340
2367.00000    0.06661
2367.50000    0.08935
2368.00000    0.11158
2368.50000    0.13327
2369.00000    0.15436
2369.50000    0.17479
2370.00000    0.19454
2370.50000    0.21359
2371.00000    0.23194
2371.50000    0.24967
2372.00000    0.26688
2372.50000    0.28372
2373.00000    0.30040
2373.50000    0.31716
2374.00000    0.33429
2374.50000    0.35204
2375.00000    0.37071
2375.50000    0.39050
2376.00000    0.41161
2376.50000    0.43411
2377.00000    0.45800
2377.50000    0.48316
2378.00000    0.50934
2378.50000    0.53617
2379.00000    0.56318
2379.50000    0.58979
2380.00000    0.61535
2380.50000    0.63915
2381.00000    0.66048
2381.50000    0.67861
2382.00000    0.69289
2382.50000    0.70272
2383.00000    0.70762
2383.50000    0.70722
2384.00000    0.70129
2384.50000    0.68973
2385.00000    0.67259
2385.50000    0.65002
2386.00000    0.62232
2386.50000    0.58987
2387.00000    0.55309
2387.50000    0.51250
2388.00000    0.46862
2388.50000    0.42196
2389.00000    0.37305
2389.50000    0.32237
2390.00000    0.27040
2390.50000    0.21756
2391.00000    0.16427
2391.50000    0.11092
2392.00000    0.05791
2392.50000    0.00565
2393.00000   -0.04543
2393.50000   -0.09486
2394.00000   -0.14212
2394.50000   -0.18664
2395.00000   -0.22777
2395.50000   -0.26483
2396.00000   -0.29709
2396.50000   -0.32381
2397.00000   -0.34421
2397.50000   -0.35756
2398.00000   -0.36318
2398.50000   -0.36043
2399.00000   -0.34882
2399.50000   -0.32797
2400.00000   -0.29768
2400.50000   -0.25791
2401.00000   -0.20884
2401.50000   -0.15084
2402.00000   -0.08452
2402.50000   -0.01066
2403.00000    0.06974
2403.50000    0.15548
2404.00000    0.24523
2404.50000    0.33751
2405.00000    0.43078
2405.50000    0.52340
2406.00000    0.61374
2406.50000    0.70020
2407.00000    0.78123
2407.50000    0.85540
2408.00000    0.92142
2408.50000    0.97819
2409.00000    1.02479
2409.50000    1.06055
2410.00000    1.08502
2410.50000    1.09800
2411.00000    1.09953
2411.50000    1.08990
2412.00000    1.06960
2412.50000    1.03931
2413.00000    0.99988
2413.50000    0.95229
2414.00000    0.89763
2414.50000    0.83704
2415.00000    0.77170
2415.50000    0.70276
2416.00000    0.63136
2416.50000    0.55857
2417.00000    0.48536
2417.50000    0.41262
2418.00000    0.34114
2418.50000    0.27157
2419.00000    0.20447
2419.50000    0.14030
2420.00000    0.07942
2420.50000    0.02211
2421.00000   -0.03141
2421.50000   -0.08099
2422.00000   -0.12649
2422.50000   -0.16783
2423.00000   -0.20490
2423.50000   -0.23764
2424.00000   -0.26597
2424.50000   -0.28981
2425.00000   -0.30911
2425.50000   -0.32381
2426.00000   -0.33384
2426.50000   -0.33920
2427.00000   -0.33987
2427.50000   -0.33590
2428.00000   -0.32736
2428.50000   -0.31439
2429.00000   -0.29716
2429.50000   -0.27590
2430.00000   -0.25092
2430.50000   -0.22255
2431.00000   -0.19120
2431.50000   -0.15732
2432.00000   -0.12139
2432.50000   -0.08394
2433.00000   -0.04552
2433.50000   -0.00668
2434.00000    0.03201
2434.50000    0.07000
2435.00000    0.10675
2435.50000    0.14177
2436.00000    0.17460
2436.50000    0.20483
2437.00000    0.23212
2437.50000    0.25622
2438.00000    0.27692
2438.50000    0.29413
2439.00000    0.30782
2439.50000    0.31805
2440.00000    0.32495
2440.50000    0.32874
2441.00000    0.32969
2441.50000    0.32811
2442.00000    0.32438
2442.50000    0.31887
2443.00000    0.31197
2443.50000    0.30407
2444.00000    0.29552
2444.50000    0.28665
2445.00000    0.27772
2445.50000    0.26896
2446.00000    0.26050
2446.50000    0.25244
2447.00000    0.24477
2447.50000    0.23746
2448.00000    0.23037
2448.50000    0.22334
2449.00000    0.21616
2449.50000    0.20859
2450.00000    0.20036
2450.50000    0.19119
2451.00000    0.18083
2451.50000    0.16903
2452.00000    0.15555
2452.50000    0.14023
2453.00000    0.12293
2453.50000    0.10355
2454.00000    0.08207
2454.50000    0.05853
2455.00000    0.03303
2455.50000    0.00572
2456.00000   -0.02317
2456.50000   -0.05336
2457.00000   -0.08451
2457.50000   -0.11622
2458.00000   -0.14807
2458.50000   -0.17958
2459.00000   -0.21027
2459.50000   -0.23962
2460.00000   -0.26713
2460.50000   -0.29229
2461.00000   -0.31462
2461.50000   -0.33368
2462.00000   -0.34908
2462.50000   -0.36046
2463.00000   -0.36755
2463.50000   -0.37015
2464.00000   -0.36813
2464.50000   -0.36145
2465.00000   -0.35013
2465.50000   -0.33428
2466.00000   -0.31406
2466.50000   -0.28973
2467.00000   -0.26155
2467.50000   -0.22986
2468.00000   -0.19500
2468.50000   -0.15735
2469.00000   -0.11728
2469.50000   -0.07515
2470.00000   -0.03134
2470.50000    0.01382
2471.00000    0.06000
2471.50000    0.10689
2472.00000    0.15421
2472.50000    0.20169
2473.00000    0.24909
2473.50000    0.29614
2474.00000    0.34262
2474.50000    0.38827
2475.00000    0.43283
2475.50000    0.47606
2476.00000    0.51766
2476.50000    0.55735
2477.00000    0.59481
2477.50000    0.62973
2478.00000    0.66178
2478.50000    0.69061
2479.00000    0.71589
2479.50000    0.73729
2480.00000    0.75449
2480.50000    0.76719
2481.00000    0.77512
2481.50000    0.77805
2482.00000    0.77578
2482.50000    0.76818
2483.00000    0.75517
2483.50000    0.73675
2484.00000    0.71299
2484.50000    0.68404
2485.00000    0.65015
2485.50000    0.61164
2486.00000    0.56894
2486.50000    0.52258
2487.00000    0.47316
2487.50000    0.42139
2488.00000    0.36804
2488.50000    0.31395
2489.00000    0.26002
2489.50000    0.20716
2490.00000    0.15630
2490.50000    0.10836
2491.00000    0.06422
2491.50000    0.02469
2492.00000   -0.00950
2492.50000   -0.03775
2493.00000   -0.05957
2493.50000   -0.07461
2494.00000   -0.08269
2494.50000   -0.08379
2495.00000   -0.07804
2495.50000   -0.06572
2496.00000   -0.04725
2496.50000   -0.02319
2497.00000    0.00585
2497.50000    0.03914
2498.00000    0.07593
2498.50000    0.11546
2499.00000    0.15696
2499.50000    0.19971
2500.00000    0.24304
2500.50000    0.28634
2501.00000    0.32909
2501.50000    0.37086
2502.00000    0.41129
2502.50000    0.45011
2503.00000    0.48714
2503.50000    0.52222
2504.00000    0.55528
2504.50000    0.58625
2505.00000    0.61507
2505.50000    0.64172
2506.00000    0.66612
2506.50000    0.68819
2507.00000    0.70783
2507.50000    0.72489
2508.00000    0.73920
2508.50000    0.75056
2509.00000    0.75873
2509.50000    0.76347
2510.00000    0.76453
2510.50000    0.76165
2511.00000    0.75461
2511.50000    0.74317
2512.00000    0.72718
2512.50000    0.70648
2513.00000    0.68099
2513.50000    0.65069
2514.00000    0.61562
2514.50000    0.57591
2515.00000    0.53176
2515.50000    0.48346
2516.00000    0.43138
2516.50000    0.37599
2517.00000    0.31786
2517.50000    0.25764
2518.00000    0.19604
2518.50000    0.13386
2519.00000    0.07194
2519.50000    0.01117
2520.00000   -0.04754
2520.50000   -0.10331
2521.00000   -0.15526
2521.50000   -0.20261
2522.00000   -0.24462
2522.50000   -0.28068
2523.00000   -0.31031
2523.50000   -0.33317
2524.00000   -0.34907
2524.50000   -0.35799
2525.00000   -0.36006
2525.50000   -0.35556
2526.00000   -0.34491
2526.50000   -0.32861
2527.00000   -0.30728
2527.50000   -0.28158
2528.00000   -0.25219
2528.50000   -0.21980
2529.00000   -0.18504
2529.50000   -0.14851
2530.00000   -0.11072
2530.50000   -0.07208
2531.00000   -0.03292
2531.50000    0.00652
2532.00000    0.04612
2532.50000    0.08582
2533.00000    0.12561
2533.50000    0.16556
2534.00000    0.20575
2534.50000    0.24626
2535.00000    0.28718
2535.50000    0.32853
2536.00000    0.37035
2536.50000    0.41257
2537.00000    0.45512
2537.50000    0.49783
2538.00000    0.54049
2538.50000    0.58284
2539.00000    0.62458
2539.50000    0.66535
2540.00000    0.70477
2540.50000    0.74244
2541.00000    0.77791
2541.50000    0.81076
2542.00000    0.84053
2542.50000    0.86676
2543.00000    0.88902
2543.50000    0.90686
2544.00000    0.91989
2544.50000    0.92772
2545.00000    0.93001
2545.50000    0.92648
2546.00000    0.91693
2546.50000    0.90123
2547.00000    0.87933
2547.50000    0.85130
2548.00000    0.81734
2548.50000    0.77773
2549.00000    0.73290
2549.50000    0.68339
2550.00000    0.62983
2550.50000    0.57295
2551.00000    0.51358
2551.50000    0.45257
2552.00000    0.39082
2552.50000    0.32923
2553.00000    0.26869
2553.50000    0.21004
2554.00000    0.15408
2554.50000    0.10154
2555.00000    0.05305
2555.50000    0.00917
2556.00000   -0.02965
2556.50000   -0.06302
2557.00000   -0.09066
2557.50000   -0.11237
2558.00000   -0.12799
2558.50000   -0.13746
2559.00000   -0.14077
2559.50000   -0.13796
2560.00000   -0.12914
2560.50000   -0.11446
2561.00000   -0.09414
2561.50000   -0.06845
2562.00000   -0.03775
2562.50000   -0.00243
2563.00000    0.03702
2563.50000    0.08009
2564.00000    0.12618
2564.50000    0.17466
2565.00000    0.22488
2565.50000    0.27618
2566.00000    0.32790
2566.50000    0.37943
2567.00000    0.43022
2567.50000    0.47980
2568.00000    0.52778
2568.50000    0.57390
2569.00000    0.61801
2569.50000    0.66006
2570.00000    0.70013
2570.50000    0.73838
2571.00000    0.77503
2571.50000    0.81036
2572.00000    0.84466
2572.50000    0.87821
2573.00000    0.91124
2573.50000    0.94391
2574.00000    0.97630
2574.50000    1.00839
2575.00000    1.04005
2575.50000    1.07106
2576.00000    1.10108
2576.50000    1.12974
2577.00000    1.15660
2577.50000    1.18122
2578.00000    1.20316
2578.50000    1.22206
2579.00000    1.23762
2579.50000    1.24965
2580.00000    1.25807
2580.50000    1.26295
2581.00000    1.26449
2581.50000    1.26301
2582.00000    1.25895
2582.50000    1.25281
2583.00000    1.24517
2583.50000    1.23662
2584.00000    1.22773
2584.50000    1.21902
2585.00000    1.21092
2585.50000    1.20375
2586.00000    1.19767
2586.50000    1.19273
2587.00000    1.18877
2587.50000    1.18553
2588.00000    1.18257
2588.50000    1.17936
2589.00000    1.17524
2589.50000    1.16953
2590.00000    1.16150
2590.50000    1.15045
2591.00000    1.13571
2591.50000    1.11670
2592.00000    1.09297
2592.50000    1.06418
2593.00000    1.03014
2593.50000    0.99081
2594.00000    0.94633
2594.50000    0.89696
2595.00000    0.84311
2595.50000    0.78529
2596.00000    0.72411
2596.50000    0.66022
2597.00000    0.59432
2597.50000    0.52712
2598.00000    0.45929
2598.50000    0.39148
2599.00000    0.32428
2599.50000    0.25821
2600.00000    0.19371
2600.50000    0.13117
2601.00000    0.07091
2601.50000    0.01318
2602.00000   -0.04180
2602.50000   -0.09383
2603.00000   -0.14273
2603.50000   -0.18833
2604.00000   -0.23043
2604.50000   -0.26884
2605.00000   -0.30335
2605.50000   -0.33374
2606.00000   -0.35978
2606.50000   -0.38128
2607.00000   -0.39805
2607.50000   -0.40998
2608.00000   -0.41699
2608.50000   -0.41910
2609.00000   -0.41644
2609.50000   -0.40923
2610.00000   -0.39778
2610.50000   -0.38254
2611.00000   -0.36403
2611.50000   -0.34284
2612.00000   -0.31965
2612.50000   -0.29513
2613.00000   -0.26999
2613.50000   -0.24489
2614.00000   -0.22041
2614.50000   -0.19708
2615.00000   -0.17531
2615.50000   -0.15538
2616.00000   -0.13745
2616.50000   -0.12154
2617.00000   -0.10756
2617.50000   -0.09528
2618.00000   -0.08442
2618.50000   -0.07462
2619.00000   -0.06550
2619.50000   -0.05667
2620.00000   -0.04777
2620.50000   -0.03850
2621.00000   -0.02866
2621.50000   -0.01811
2622.00000   -0.00682
2622.50000    0.00512
2623.00000    0.01753
2623.50000    0.03016
2624.00000    0.04270
2624.50000    0.05480
2625.00000    0.06609
2625.50000    0.07625
2626.00000    0.08499
2626.50000    0.09208
2627.00000    0.09740
2627.50000    0.10090
2628.00000    0.10267
2628.50000    0.10288
2629.00000    0.10178
2629.50000    0.09971
2630.00000    0.09705
2630.50000    0.09423
2631.00000    0.09163
2631.50000    0.08966
2632.00000    0.08864
2632.50000    0.08882
2633.00000    0.09038
2633.50000    0.09339
2634.00000    0.09784
2634.50000    0.10361
2635.00000    0.11052
2635.50000    0.11833
2636.00000    0.12675
2636.50000    0.13550
2637.00000    0.14430
2637.50000    0.15295
2638.00000    0.16127
2638.50000    0.16920
2639.00000    0.17677
2639.50000    0.18410
2640.00000    0.19142
2640.50000    0.19905
2641.00000    0.20740
2641.50000    0.21692
2642.00000    0.22810
2642.50000    0.24141
2643.00000    0.25732
2643.50000    0.27623
2644.00000    0.29848
2644.50000    0.32429
2645.00000    0.35377
2645.50000    0.38693
2646.00000    0.42364
2646.50000    0.46367
2647.00000    0.50670
2647.50000    0.55230
2648.00000    0.60001
2648.50000    0.64933
2649.00000    0.69976
2649.50000    0.75081
2650.00000    0.80206
2650.50000    0.85316
2651.00000    0.90384
2651.50000    0.95395
2652.00000    1.00347
2652.50000    1.05248
2653.00000    1.10123
2653.50000    1.15004
2654.00000    1.19938
2654.50000    1.24981
2655.00000    1.30196
2655.50000    1.35655
2656.00000    1.41432
2656.50000    1.47605
2657.00000    1.54252
2657.50000    1.61447
2658.00000    1.69263
2658.50000    1.77767
2659.00000    1.87017
2659.50000    1.97065
2660.00000    2.07952
2660.50000    2.19708
2661.00000    2.32356
2661.50000    2.45904
2662.00000    2.60352
2662.50000    2.75687
2663.00000    2.91889
2663.50000    3.08928
2664.00000    3.26766
2664.50000    3.45356
2665.00000    3.64649
2665.50000    3.84588
2666.00000    4.05115
2666.50000    4.26168
2667.00000    4.47682
2667.50000    4.69594
2668.00000    4.91841
2668.50000    5.14357
2669.00000    5.37082
2669.50000    5.59952
2670.00000    5.82907
2670.50000    6.05887
2671.00000    6.28833
2671.50000    6.51686
2672.00000    6.74386
2672.50000    6.96874
2673.00000    7.19089
2673.50000    7.40968
2674.00000    7.62447
2674.50000    7.83457
2675.00000    8.03931
2675.50000    8.23796
2676.00000    8.42978
2676.50000    8.61401
2677.00000    8.78987
2677.50000    8.95660
2678.00000    9.11341
2678.50000    9.25954
2679.00000    9.39426
2679.50000    9.51687
2680.00000    9.62672
2680.50000    9.72323
2681.00000    9.80589
2681.50000    9.87428
2682.00000    9.92807
2682.50000    9.96702
2683.00000    9.99101
2683.50000   10.00000
2684.00000    9.99406
2684.50000    9.97336
2685.00000    9.93812
2685.50000    9.88868
2686.00000    9.82541
2686.50000    9.74872
2687.00000    9.65907
2687.50000    9.55695
2688.00000    9.44283
2688.50000    9.31722
2689.00000    9.18061
2689.50000    9.03349
2690.00000    8.87637
2690.50000    8.70974
2691.00000    8.53413
2691.50000    8.35008
2692.00000    8.15817
2692.50000    7.95904
2693.00000    7.75338
2693.50000    7.54194
2694.00000    7.32555
2694.50000    7.10514
2695.00000    6.88167
2695.50000    6.65620
2696.00000    6.42982
2696.50000    6.20365
2697.00000    5.97884
2697.50000    5.75649
2698.00000    5.53769
2698.50000    5.32344
2699.00000    5.11462
2699.50000    4.91200
2700.00000    4.71619
2700.50000    4.52766
2701.00000    4.34665
2701.50000    4.17327
2702.00000    4.00742
2702.50000    3.84886
2703.00000    3.69720
2703.50000    3.55193
2704.00000    3.41245
2704.50000    3.27814
2705.00000    3.14834
2705.50000    3.02241
2706.00000    2.89978
2706.50000    2.77999
2707.00000    2.66264
2707.50000    2.54753
2708.00000    2.43456
2708.50000    2.32379
2709.00000    2.21542
2709.50000    2.10980
2710.00000    2.00735
2710.50000    1.90861
2711.00000    1.81415
2711.50000    1.72455
2712.00000    1.64038
2712.50000    1.56214
2713.00000    1.49026
2713.50000    1.42502
2714.00000    1.36657
2714.50000    1.31488
2715.00000    1.26976
2715.50000    1.23082
2716.00000    1.19750
2716.50000    1.16909
2717.00000    1.14471
2717.50000    1.12340
2718.00000    1.10409
2718.50000    1.08570
2719.00000    1.06713
2719.50000    1.04736
2720.00000    1.02542
2720.50000    1.00051
2721.00000    0.97198
2721.50000    0.93936
2722.00000    0.90241
2722.50000    0.86112
2723.00000    0.81566
2723.50000    0.76646
2724.00000    0.71410
2724.50000    0.65935
2725.00000    0.60306
2725.50000    0.54618
2726.00000    0.48970
2726.50000    0.43458
2727.00000    0.38172
2727.50000    0.33195
2728.00000    0.28592
2728.50000    0.24419
2729.00000    0.20711
2729.50000    0.17487
2730.00000    0.14750
2730.50000    0.12489
2731.00000    0.10679
2731.50000    0.09286
2732.00000    0.08269
2732.50000    0.07582
2733.00000    0.07180
2733.50000    0.07018
2734.00000    0.07053
2734.50000    0.07248
2735.00000    0.07571
2735.50000    0.07995
2736.00000    0.08494
2736.50000    0.09050
2737.00000    0.09641
2737.50000    0.10249
2738.00000    0.10854
2738.50000    0.11431
2739.00000    0.11957
2739.50000    0.12402
2740.00000    0.12734
2740.50000    0.12920
2741.00000    0.12927
2741.50000    0.12723
2742.00000    0.12277
2742.50000    0.11565
2743.00000    0.10568
2743.50000    0.09273
2744.00000    0.07677
2744.50000    0.05784
2745.00000    0.03609
2745.50000    0.01172
2746.00000   -0.01497
2746.50000   -0.04362
2747.00000   -0.07385
2747.50000   -0.10520
2748.00000   -0.13721
2748.50000   -0.16941
2749.00000   -0.20132
2749.50000   -0.23245
2750.00000   -0.26236
2750.50000   -0.29059
2751.00000   -0.31670
2751.50000   -0.34029
2752.00000   -0.36097
2752.50000   -0.37838
2753.00000   -0.39217
2753.50000   -0.40204
2754.00000   -0.40772
2754.50000   -0.40900
2755.00000   -0.40568
2755.50000   -0.39764
2756.00000   -0.38483
2756.50000   -0.36722
2757.00000   -0.34486
2757.50000   -0.31787
2758.00000   -0.28638
2758.50000   -0.25061
2759.00000   -0.21077
2759.50000   -0.16711
2760.00000   -0.11991
2760.50000   -0.06942
2761.00000   -0.01591
2761.50000    0.04035
2762.00000    0.09911
2762.50000    0.16012
2763.00000    0.22313
2763.50000    0.28787
2764.00000    0.35407
2764.50000    0.42144
2765.00000    0.48964
2765.50000    0.55831
2766.00000    0.62707
2766.50000    0.69547
2767.00000    0.76307
2767.50000    0.82938
2768.00000    0.89392
2768.50000    0.95619
2769.00000    1.01572
2769.50000    1.07204
2770.00000    1.12471
2770.50000    1.17332
2771.00000    1.21752
2771.50000    1.25694
2772.00000    1.29129
2772.50000    1.32027
2773.00000    1.34360
2773.50000    1.36101
2774.00000    1.37223
2774.50000    1.37698
2775.00000    1.37500
2775.50000    1.36602
2776.00000    1.34981
2776.50000    1.32614
2777.00000    1.29489
2777.50000    1.25597
2778.00000    1.20942
2778.50000    1.15540
2779.00000    1.09422
2779.50000    1.02634
2780.00000    0.95241
2780.50000    0.87321
2781.00000    0.78971
2781.50000    0.70301
2782.00000    0.61432
2782.50000    0.52492
2783.00000    0.43614
2783.50000    0.34931
2784.00000    0.26571
2784.50000    0.18652
2785.00000    0.11281
2785.50000    0.04550
2786.00000   -0.01470
2786.50000   -0.06723
2787.00000   -0.11177
2787.50000   -0.14819
2788.00000   -0.17651
2788.50000   -0.19698
2789.00000   -0.20996
2789.50000   -0.21594
2790.00000   -0.21552
2790.50000   -0.20935
2791.00000   -0.19816
2791.50000   -0.18265
2792.00000   -0.16356
2792.50000   -0.14156
2793.00000   -0.11734
2793.50000   -0.09150
2794.00000   -0.06461
2794.50000   -0.03717
2795.00000   -0.00963
2795.50000    0.01761
2796.00000    0.04421
2796.50000    0.06989
2797.00000    0.09439
2797.50000    0.11751
2798.00000    0.13908
2798.50000    0.15897
2799.00000    0.17706
2799.50000    0.19327
2800.00000    0.20754
2800.50000    0.21984
2801.00000    0.23016
2801.50000    0.23851
2802.00000    0.24490
2802.50000    0.24940
2803.00000    0.25207
2803.50000    0.25298
2804.00000    0.25224
2804.50000    0.24994
2805.00000    0.24621
2805.50000    0.24115
2806.00000    0.23487
2806.50000    0.22746
2807.00000    0.21900
2807.50000    0.20956
2808.00000    0.19916
2808.50000    0.18781
2809.00000    0.17549
2809.50000    0.16213
2810.00000    0.14765
2810.50000    0.13197
2811.00000    0.11496
2811.50000    0.09651
2812.00000    0.07654
2812.50000    0.05495
2813.00000    0.03172
2813.50000    0.00687
2814.00000   -0.01954
2814.50000   -0.04735
2815.00000   -0.07632
2815.50000   -0.10615
2816.00000   -0.13642
2816.50000   -0.16666
2817.00000   -0.19632
2817.50000   -0.22480
2818.00000   -0.25145
2818.50000   -0.27560
2819.00000   -0.29661
2819.50000   -0.31382
2820.00000   -0.32667
2820.50000   -0.33462
2821.00000   -0.33726
2821.50000   -0.33428
2822.00000   -0.32548
2822.50000   -0.31081
2823.00000   -0.29032
2823.50000   -0.26422
2824.00000   -0.23282
2824.50000   -0.19656
2825.00000   -0.15595
2825.50000   -0.11159
2826.00000   -0.06414
2826.50000   -0.01427
2827.00000    0.03732
2827.50000    0.08994
2828.00000    0.14291
2828.50000    0.19559
2829.00000    0.24736
2829.50000    0.29766
2830.00000    0.34594
2830.50000    0.39173
2831.00000    0.43455
2831.50000    0.47399
2832.00000    0.50965
2832.50000    0.54117
2833.00000    0.56821
2833.50000    0.59048
2834.00000    0.60776
2834.50000    0.61985
2835.00000    0.62665
2835.50000    0.62814
2836.00000    0.62439
2836.50000    0.61560
2837.00000    0.60205
2837.50000    0.58414
2838.00000    0.56238
2838.50000    0.53736
2839.00000    0.50974
2839.50000    0.48022
2840.00000    0.44951
2840.50000    0.41830
2841.00000    0.38721
2841.50000    0.35681
2842.00000    0.32753
2842.50000    0.29969
2843.00000    0.27346
2843.50000    0.24889
2844.00000    0.22591
2844.50000    0.20433
2845.00000    0.18389
2845.50000    0.16428
2846.00000    0.14516
2846.50000    0.12623
2847.00000    0.10723
2847.50000    0.08795
2848.00000    0.06828
2848.50000    0.04819
2849.00000    0.02773
2849.50000    0.00701
2850.00000   -0.01379
2850.50000   -0.03450
2851.00000   -0.05490
2851.50000   -0.07485
2852.00000   -0.09421
2852.50000   -0.11291
2853.00000   -0.13096
2853.50000   -0.14839
2854.00000   -0.16529
2854.50000   -0.18177
2855.00000   -0.19794
2855.50000   -0.21384
2856.00000   -0.22948
2856.50000   -0.24474
2857.00000   -0.25941
2857.50000   -0.27312
2858.00000   -0.28539
2858.50000   -0.29559
2859.00000   -0.30302
2859.50000   -0.30689
2860.00000   -0.30639
2860.50000   -0.30073
2861.00000   -0.28919
2861.50000   -0.27119
2862.00000   -0.24629
2862.50000   -0.21427
2863.00000   -0.17514
2863.50000   -0.12917
2864.00000   -0.07686
2864.50000   -0.01897
2865.00000    0.04352
2865.50000    0.10948
2866.00000    0.17761
2866.50000    0.24652
2867.00000    0.31480
2867.50000    0.38102
2868.00000    0.44382
2868.50000    0.50193
2869.00000    0.55422
2869.50000    0.59970
2870.00000    0.63756
2870.50000    0.66722
2871.00000    0.68826
2871.50000    0.70049
2872.00000    0.70391
2872.50000    0.69871
2873.00000    0.68528
2873.50000    0.66416
2874.00000    0.63608
2874.50000    0.60185
2875.00000    0.56246
2875.50000    0.51893
2876.00000    0.47238
2876.50000    0.42396
2877.00000    0.37481
2877.50000    0.32605
2878.00000    0.27875
2878.50000    0.23388
2879.00000    0.19230
2879.50000    0.15472
2880.00000    0.12169
2880.50000    0.09359
2881.00000    0.07060
2881.50000    0.05272
2882.00000    0.03976
2882.50000    0.03139
2883.00000    0.02710
2883.50000    0.02627
2884.00000    0.02820
2884.50000    0.03209
2885.00000    0.03715
2885.50000    0.04255
2886.00000    0.04751
2886.50000    0.05132
2887.00000    0.05334
2887.50000    0.05303
2888.00000    0.04997
2888.50000    0.04391
2889.00000    0.03470
2889.50000    0.02237
2890.00000    0.00711
2890.50000   -0.01074
2891.00000   -0.03069
2891.50000   -0.05209
2892.00000   -0.07420
2892.50000   -0.09612
2893.00000   -0.11689
2893.50000   -0.13550
2894.00000   -0.15090
2894.50000   -0.16206
2895.00000   -0.16801
2895.50000   -0.16788
2896.00000   -0.16095
2896.50000   -0.14670
2897.00000   -0.12481
2897.50000   -0.09527
2898.00000   -0.05831
2898.50000   -0.01448
2899.00000    0.03538
2899.50000    0.09013
2900.00000    0.14842
2900.50000    0.20866
2901.00000    0.26912
2901.50000    0.32800
2902.00000    0.38349
2902.50000    0.43383
2903.00000    0.47742
2903.50000    0.51289
2904.00000    0.53911
2904.50000    0.55530
2905.00000    0.56101
2905.50000    0.55616
2906.00000    0.54105
2906.50000    0.51629
2907.00000    0.48281
2907.50000    0.44178
2908.00000    0.39457
2908.50000    0.34266
2909.00000    0.28758
2909.50000    0.23086
2910.00000    0.17392
2910.50000    0.11805
2911.00000    0.06439
2911.50000    0.01384
2912.00000   -0.03290
2912.50000   -0.07535
2913.00000   -0.11326
2913.50000   -0.14653
2914.00000   -0.17525
2914.50000   -0.19960
2915.00000   -0.21985
2915.50000   -0.23631
2916.00000   -0.24930
2916.50000   -0.25909
2917.00000   -0.26594
2917.50000   -0.27003
2918.00000   -0.27146
2918.50000   -0.27030
2919.00000   -0.26654
2919.50000   -0.26014
2920.00000   -0.25103
2920.50000   -0.23915
2921.00000   -0.22445
2921.50000   -0.20692
2922.00000   -0.18660
2922.50000   -0.16358
2923.00000   -0.13806
2923.50000   -0.11028
2924.00000   -0.08056
2924.50000   -0.04931
2925.00000   -0.01699
2925.50000    0.01591
2926.00000    0.04883
2926.50000    0.08122
2927.00000    0.11254
2927.50000    0.14223
2928.00000    0.16980
2928.50000    0.19481
2929.00000    0.21685
2929.50000    0.23563
2930.00000    0.25090
2930.50000    0.26253
2931.00000    0.27044
2931.50000    0.27466
2932.00000    0.27526
2932.50000    0.27241
2933.00000    0.26629
2933.50000    0.25715
2934.00000    0.24522
2934.50000    0.23078
2935.00000    0.21407
2935.50000    0.19534
2936.00000    0.17481
2936.50000    0.15267
2937.00000    0.12910
2937.50000    0.10428
2938.00000    0.07835
2938.50000    0.05148
2939.00000    0.02383
2939.50000   -0.00440
2940.00000   -0.03299
2940.50000   -0.06169
2941.00000   -0.09021
2941.50000   -0.11822
2942.00000   -0.14536
2942.50000   -0.17126
2943.00000   -0.19553
2943.50000   -0.21779
2944.00000   -0.23770
2944.50000   -0.25492
2945.00000   -0.26920
2945.50000   -0.28034
2946.00000   -0.28821
2946.50000   -0.29277
2947.00000   -0.29405
2947.50000   -0.29215
2948.00000   -0.28726
2948.50000   -0.27963
2949.00000   -0.26955
2949.50000   -0.25734
2950.00000   -0.24336
2950.50000   -0.22797
2951.00000   -0.21154
2951.50000   -0.19443
2952.00000   -0.17697
2952.50000   -0.15949
2953.00000   -0.14227
2953.50000   -0.12558
2954.00000   -0.10965
2954.50000   -0.09468
2955.00000   -0.08082
2955.50000   -0.06821
2956.00000   -0.05692
2956.50000   -0.04698
2957.00000   -0.03838
2957.50000   -0.03106
2958.00000   -0.02488
2958.50000   -0.01970
2959.00000   -0.01530
2959.50000   -0.01142
2960.00000   -0.00778
2960.50000   -0.00409
2961.00000   -0.00002
2961.50000    0.00470
2962.00000    0.01035
2962.50000    0.01716
2963.00000    0.02527
2963.50000    0.03480
2964.00000    0.04575
2964.50000    0.05806
2965.00000    0.07157
2965.50000    0.08608
2966.00000    0.10128
2966.50000    0.11686
2967.00000    0.13244
2967.50000    0.14768
2968.00000    0.16220
2968.50000    0.17571
2969.00000    0.18792
2969.50000    0.19866
2970.00000    0.20781
2970.50000    0.21535
2971.00000    0.22133
2971.50000    0.22590
2972.00000    0.22927
2972.50000    0.23170
2973.00000    0.23351
2973.50000    0.23501
2974.00000    0.23653
2974.50000    0.23834
2975.00000    0.24070
2975.50000    0.24380
2976.00000    0.24775
2976.50000    0.25259
2977.00000    0.25826
2977.50000    0.26464
2978.00000    0.27153
2978.50000    0.27868
2979.00000    0.28575
2979.50000    0.29240
2980.00000    0.29827
2980.50000    0.30296
2981.00000    0.30610
2981.50000    0.30732
2982.00000    0.30629
2982.50000    0.30270
2983.00000    0.29627
2983.50000    0.28677
2984.00000    0.27401
2984.50000    0.25786
2985.00000    0.23822
2985.50000    0.21509
2986.00000    0.18848
2986.50000    0.15854
2987.00000    0.12545
2987.50000    0.08950
2988.00000    0.05108
2988.50000    0.01066
2989.00000   -0.03119
2989.50000   -0.07381
2990.00000   -0.11648
2990.50000   -0.15840
2991.00000   -0.19877
2991.50000   -0.23676
2992.00000   -0.27160
2992.50000   -0.30256
2993.00000   -0.32903
2993.50000   -0.35052
2994.00000   -0.36669
2994.50000   -0.37741
2995.00000   -0.38271
2995.50000   -0.38280
2996.00000   -0.37810
2996.50000   -0.36914
2997.00000   -0.35660
2997.50000   -0.34120
2998.00000   -0.32371
2998.50000   -0.30486
2999.00000   -0.28527
2999.50000   -0.26541
