1200.50000   -0.28188
1201.00000   -0.25515
1201.50000   -0.22856
1202.00000   -0.20227
1202.50000   -0.17641
1203.00000   -0.15117
1203.50000   -0.12673
1204.00000   -0.10327
1204.50000   -0.08095
1205.00000   -0.05991
1205.50000   -0.04027
1206.00000   -0.02214
1206.50000   -0.00555
1207.00000    0.00945
1207.50000    0.02290
1208.00000    0.03483
1208.50000    0.04535
1209.00000    0.05456
1209.50000    0.06263
1210.00000    0.06973
1210.50000    0.07606
1211.00000    0.08184
1211.50000    0.08731
1212.00000    0.09270
1212.50000    0.09825
1213.00000    0.10419
1213.50000    0.11074
1214.00000    0.11809
1214.50000    0.12643
1215.00000    0.13589
1215.50000    0.14657
1216.00000    0.15853
1216.50000    0.17179
1217.00000    0.18629
1217.50000    0.20194
1218.00000    0.21858
1218.50000    0.23600
1219.00000    0.25391
1219.50000    0.27198
1220.00000    0.28985
1220.50000    0.30708
1221.00000    0.32321
1221.50000    0.33777
1222.00000    0.35028
1222.50000    0.36023
1223.00000    0.36717
1223.50000    0.37064
1224.00000    0.37027
1224.50000    0.36570
1225.00000    0.35668
1225.50000    0.34303
1226.00000    0.32464
1226.50000    0.30155
1227.00000    0.27384
1227.50000    0.24175
1228.00000    0.20559
1228.50000    0.16578
1229.00000    0.12281
1229.50000    0.07726
1230.00000    0.02977
1230.50000   -0.01897
1231.00000   -0.06825
1231.50000   -0.11733
1232.00000   -0.16549
1232.50000   -0.21203
1233.00000   -0.25628
1233.50000   -0.29762
1234.00000   -0.33551
1234.50000   -0.36947
1235.00000   -0.39914
1235.50000   -0.42421
1236.00000   -0.44452
1236.50000   -0.45998
1237.00000   -0.47060
1237.50000   -0.47649
1238.00000   -0.47786
1238.50000   -0.47498
1239.00000   -0.46818
1239.50000   -0.45787
1240.00000   -0.44449
1240.50000   -0.42849
1241.00000   -0.41036
1241.50000   -0.39057
1242.00000   -0.36958
1242.50000   -0.34783
1243.00000   -0.32571
1243.50000   -0.30358
1244.00000   -0.28172
1244.50000   -0.26036
1245.00000   -0.23968
1245.50000   -0.21978
1246.00000   -0.20071
1246.50000   -0.18245
1247.00000   -0.16496
1247.50000   -0.14813
1248.00000   -0.13185
1248.50000   -0.11597
1249.00000   -0.10033
1249.50000   -0.08479
1250.00000   -0.06921
1250.50000   -0.05347
1251.00000   -0.03749
1251.50000   -0.02120
1252.00000   -0.00460
1252.50000    0.01231
1253.00000    0.02945
1253.50000    0.04676
1254.00000    0.06410
1254.50000    0.08134
1255.00000    0.09833
1255.50000    0.11493
1256.00000    0.13098
1256.50000    0.14634
1257.00000    0.16089
1257.50000    0.17454
1258.00000    0.18721
1258.50000    0.19886
1259.00000    0.20948
1259.50000    0.21907
1260.00000    0.22768
1260.50000    0.23536
1261.00000    0.24216
1261.50000    0.24818
1262.00000    0.25345
1262.50000    0.25806
1263.00000    0.26203
1263.50000    0.26538
1264.00000    0.26812
1264.50000    0.27019
1265.00000    0.27155
1265.50000    0.27209
1266.00000    0.27171
1266.50000    0.27026
1267.00000    0.26758
1267.50000    0.26352
1268.00000    0.25789
1268.50000    0.25054
1269.00000    0.24132
1269.50000    0.23008
1270.00000    0.21672
1270.50000    0.20116
1271.00000    0.18335
1271.50000    0.16330
1272.00000    0.14105
1272.50000    0.11667
1273.00000    0.09029
1273.50000    0.06208
1274.00000    0.03225
1274.50000    0.00105
1275.00000   -0.03124
1275.50000   -0.06428
1276.00000   -0.09774
1276.50000   -0.13125
1277.00000   -0.16440
1277.50000   -0.19680
1278.00000   -0.22802
1278.50000   -0.25765
1279.00000   -0.28527
1279.50000   -0.31048
1280.00000   -0.33286
1280.50000   -0.35206
1281.00000   -0.36771
1281.50000   -0.37950
1282.00000   -0.38715
1282.50000   -0.39042
1283.00000   -0.38912
1283.50000   -0.38311
1284.00000   -0.37234
1284.50000   -0.35677
1285.00000   -0.33649
1285.50000   -0.31160
1286.00000   -0.28232
1286.50000   -0.24893
1287.00000   -0.21177
1287.50000   -0.17125
1288.00000   -0.12785
1288.50000   -0.08212
1289.00000   -0.03464
1289.50000    0.01398
1290.00000    0.06308
1290.50000    0.11198
1291.00000    0.16002
1291.50000    0.20653
1292.00000    0.25087
1292.50000    0.29244
1293.00000    0.33069
1293.50000    0.36511
1294.00000    0.39529
1294.50000    0.42089
1295.00000    0.44167
1295.50000    0.45745
1296.00000    0.46818
1296.50000    0.47389
1297.00000    0.47469
1297.50000    0.47076
1298.00000    0.46238
1298.50000    0.44988
1299.00000    0.43361
1299.50000    0.41400
1300.00000    0.39148
1300.50000    0.36650
1301.00000    0.33949
1301.50000    0.31090
1302.00000    0.28115
1302.50000    0.25061
1303.00000    0.21966
1303.50000    0.18860
1304.00000    0.15774
1304.50000    0.12734
1305.00000    0.09761
1305.50000    0.06878
1306.00000    0.04101
1306.50000    0.01449
1307.00000   -0.01063
1307.50000   -0.03420
1308.00000   -0.05609
1308.50000   -0.07614
1309.00000   -0.09424
1309.50000   -0.11026
1310.00000   -0.12407
1310.50000   -0.13559
1311.00000   -0.14474
1311.50000   -0.15145
1312.00000   -0.15570
1312.50000   -0.15748
1313.00000   -0.15685
1313.50000   -0.15386
1314.00000   -0.14862
1314.50000   -0.14128
1315.00000   -0.13198
1315.50000   -0.12092
1316.00000   -0.10828
1316.50000   -0.09427
1317.00000   -0.07907
1317.50000   -0.06287
1318.00000   -0.04582
1318.50000   -0.02805
1319.00000   -0.00965
1319.50000    0.00932
1320.00000    0.02884
1320.50000    0.04896
1321.00000    0.06973
1321.50000    0.09126
1322.00000    0.11370
1322.50000    0.13718
1323.00000    0.16191
1323.50000    0.18804
1324.00000    0.21579
1324.50000    0.24533
1325.00000    0.27684
1325.50000    0.31050
1326.00000    0.34646
1326.50000    0.38487
1327.00000    0.42588
1327.50000    0.46960
1328.00000    0.51617
1328.50000    0.56570
1329.00000    0.61832
1329.50000    0.67415
1330.00000    0.73332
1330.50000    0.79594
1331.00000    0.86214
1331.50000    0.93202
1332.00000    1.00566
1332.50000    1.08314
1333.00000    1.16446
1333.50000    1.24958
1334.00000    1.33843
1334.50000    1.43081
1335.00000    1.52650
1335.50000    1.62513
1336.00000    1.72628
1336.50000    1.82943
1337.00000    1.93395
1337.50000    2.03914
1338.00000    2.14422
1338.50000    2.24835
1339.00000    2.35065
1339.50000    2.45022
1340.00000    2.54615
1340.50000    2.63757
1341.00000    2.72363
1341.50000    2.80356
1342.00000    2.87667
1342.50000    2.94235
1343.00000    3.00011
1343.50000    3.04957
1344.00000    3.09046
1344.50000    3.12264
1345.00000    3.14607
1345.50000    3.16080
1346.00000    3.16702
1346.50000    3.16494
1347.00000    3.15488
1347.50000    3.13720
1348.00000    3.11229
1348.50000    3.08057
1349.00000    3.04247
1349.50000    2.99842
1350.00000    2.94886
1350.50000    2.89418
1351.00000    2.83480
1351.50000    2.77109
1352.00000    2.70344
1352.50000    2.63219
1353.00000    2.55770
1353.50000    2.48030
1354.00000    2.40035
1354.50000    2.31818
1355.00000    2.23412
1355.50000    2.14852
1356.00000    2.06173
1356.50000    1.97407
1357.00000    1.88589
1357.50000    1.79752
1358.00000    1.70927
1358.50000    1.62145
1359.00000    1.53433
1359.50000    1.44818
1360.00000    1.36324
1360.50000    1.27973
1361.00000    1.19783
1361.50000    1.11771
1362.00000    1.03954
1362.50000    0.96346
1363.00000    0.88958
1363.50000    0.81802
1364.00000    0.74892
1364.50000    0.68236
1365.00000    0.61848
1365.50000    0.55738
1366.00000    0.49918
1366.50000    0.44397
1367.00000    0.39188
1367.50000    0.34297
1368.00000    0.29733
1368.50000    0.25500
1369.00000    0.21600
1369.50000    0.18031
1370.00000    0.14787
1370.50000    0.11859
1371.00000    0.09233
1371.50000    0.06892
1372.00000    0.04812
1372.50000    0.02971
1373.00000    0.01340
1373.50000   -0.00108
1374.00000   -0.01403
1374.50000   -0.02573
1375.00000   -0.03647
1375.50000   -0.04647
1376.00000   -0.05595
1376.50000   -0.06507
1377.00000   -0.07395
1377.50000   -0.08266
1378.00000   -0.09120
1378.50000   -0.09954
1379.00000   -0.10758
1379.50000   -0.11522
1380.00000   -0.12227
1380.50000   -0.12856
1381.00000   -0.13390
1381.50000   -0.13806
1382.00000   -0.14086
1382.50000   -0.14212
1383.00000   -0.14167
1383.50000   -0.13939
1384.00000   -0.13520
1384.50000   -0.12905
1385.00000   -0.12095
1385.50000   -0.11094
1386.00000   -0.09912
1386.50000   -0.08562
1387.00000   -0.07060
1387.50000   -0.05428
1388.00000   -0.03687
1388.50000   -0.01863
1389.00000    0.00019
1389.50000    0.01933
1390.00000    0.03851
1390.50000    0.05748
1391.00000    0.07598
1391.50000    0.09378
1392.00000    0.11065
1392.50000    0.12640
1393.00000    0.14085
1393.50000    0.15385
1394.00000    0.16527
1394.50000    0.17501
1395.00000    0.18298
1395.50000    0.18914
1396.00000    0.19344
1396.50000    0.19587
1397.00000    0.19644
1397.50000    0.19517
1398.00000    0.19211
1398.50000    0.18730
1399.00000    0.18084
1399.50000    0.17279
1400.00000    0.16327
1400.50000    0.15240
1401.00000    0.14029
1401.50000    0.12710
1402.00000    0.11297
1402.50000    0.09806
1403.00000    0.08255
1403.50000    0.06659
1404.00000    0.05038
1404.50000    0.03408
1405.00000    0.01788
1405.50000    0.00193
1406.00000   -0.01358
1406.50000   -0.02852
1407.00000   -0.04275
1407.50000   -0.05614
1408.00000   -0.06859
1408.50000   -0.08002
1409.00000   -0.09036
1409.50000   -0.09957
1410.00000   -0.10763
1410.50000   -0.11453
1411.00000   -0.12030
1411.50000   -0.12497
1412.00000   -0.12859
1412.50000   -0.13122
1413.00000   -0.13294
1413.50000   -0.13384
1414.00000   -0.13402
1414.50000   -0.13357
1415.00000   -0.13260
1415.50000   -0.13123
1416.00000   -0.12958
1416.50000   -0.12778
1417.00000   -0.12595
1417.50000   -0.12423
1418.00000   -0.12275
1418.50000   -0.12164
1419.00000   -0.12103
1419.50000   -0.12105
1420.00000   -0.12179
1420.50000   -0.12335
1421.00000   -0.12578
1421.50000   -0.12912
1422.00000   -0.13336
1422.50000   -0.13844
1423.00000   -0.14426
1423.50000   -0.15068
1424.00000   -0.15748
1424.50000   -0.16441
1425.00000   -0.17117
1425.50000   -0.17742
1426.00000   -0.18280
1426.50000   -0.18692
1427.00000   -0.18940
1427.50000   -0.18987
1428.00000   -0.18800
1428.50000   -0.18351
1429.00000   -0.17617
1429.50000   -0.16585
1430.00000   -0.15250
1430.50000   -0.13618
1431.00000   -0.11704
1431.50000   -0.09538
1432.00000   -0.07155
1432.50000   -0.04604
1433.00000   -0.01939
1433.50000    0.00777
1434.00000    0.03478
1434.50000    0.06098
1435.00000    0.08569
1435.50000    0.10828
1436.00000    0.12816
1436.50000    0.14482
1437.00000    0.15785
1437.50000    0.16694
1438.00000    0.17192
1438.50000    0.17272
1439.00000    0.16942
1439.50000    0.16221
1440.00000    0.15141
1440.50000    0.13743
1441.00000    0.12080
1441.50000    0.10208
1442.00000    0.08190
1442.50000    0.06094
1443.00000    0.03985
1443.50000    0.01930
1444.00000   -0.00008
1444.50000   -0.01773
1445.00000   -0.03311
1445.50000   -0.04579
1446.00000   -0.05539
1446.50000   -0.06164
1447.00000   -0.06435
1447.50000   -0.06342
1448.00000   -0.05885
1448.50000   -0.05073
1449.00000   -0.03923
1449.50000   -0.02460
1450.00000   -0.00717
1450.50000    0.01267
1451.00000    0.03444
1451.50000    0.05766
1452.00000    0.08176
1452.50000    0.10617
1453.00000    0.13028
1453.50000    0.15350
1454.00000    0.17522
1454.50000    0.19485
1455.00000    0.21186
1455.50000    0.22575
1456.00000    0.23607
1456.50000    0.24247
1457.00000    0.24469
1457.50000    0.24254
1458.00000    0.23597
1458.50000    0.22504
1459.00000    0.20991
1459.50000    0.19088
1460.00000    0.16836
1460.50000    0.14284
1461.00000    0.11495
1461.50000    0.08536
1462.00000    0.05481
1462.50000    0.02407
1463.00000   -0.00608
1463.50000   -0.03488
1464.00000   -0.06161
1464.50000   -0.08562
1465.00000   -0.10635
1465.50000   -0.12333
1466.00000   -0.13623
1466.50000   -0.14486
1467.00000   -0.14913
1467.50000   -0.14913
1468.00000   -0.14505
1468.50000   -0.13720
1469.00000   -0.12601
1469.50000   -0.11199
1470.00000   -0.09569
1470.50000   -0.07773
1471.00000   -0.05872
1471.50000   -0.03927
1472.00000   -0.01995
1472.50000   -0.00125
1473.00000    0.01638
1473.50000    0.03259
1474.00000    0.04713
1474.50000    0.05982
1475.00000    0.07060
1475.50000    0.07949
1476.00000    0.08656
1476.50000    0.09198
1477.00000    0.09595
1477.50000    0.09870
1478.00000    0.10048
1478.50000    0.10155
1479.00000    0.10214
1479.50000    0.10247
1480.00000    0.10272
1480.50000    0.10302
1481.00000    0.10348
1481.50000    0.10414
1482.00000    0.10501
1482.50000    0.10608
1483.00000    0.10728
1483.50000    0.10856
1484.00000    0.10981
1484.50000    0.11094
1485.00000    0.11186
1485.50000    0.11246
1486.00000    0.11266
1486.50000    0.11237
1487.00000    0.11152
1487.50000    0.11002
1488.00000    0.10780
1488.50000    0.10481
1489.00000    0.10097
1489.50000    0.09620
1490.00000    0.09043
1490.50000    0.08360
1491.00000    0.07561
1491.50000    0.06642
1492.00000    0.05595
1492.50000    0.04416
1493.00000    0.03104
1493.50000    0.01660
1494.00000    0.00090
1494.50000   -0.01597
1495.00000   -0.03387
1495.50000   -0.05260
1496.00000   -0.07193
1496.50000   -0.09158
1497.00000   -0.11123
1497.50000   -0.13052
1498.00000   -0.14910
1498.50000   -0.16658
1499.00000   -0.18261
1499.50000   -0.19684
1500.00000   -0.20894
1500.50000   -0.21866
1501.00000   -0.22577
1501.50000   -0.23013
1502.00000   -0.23167
1502.50000   -0.23036
1503.00000   -0.22627
1503.50000   -0.21955
1504.00000   -0.21036
1504.50000   -0.19898
1505.00000   -0.18568
1505.50000   -0.17078
1506.00000   -0.15465
1506.50000   -0.13763
1507.00000   -0.12010
1507.50000   -0.10241
1508.00000   -0.08491
1508.50000   -0.06793
1509.00000   -0.05178
1509.50000   -0.03672
1510.00000   -0.02302
1510.50000   -0.01090
1511.00000   -0.00053
1511.50000    0.00792
1512.00000    0.01432
1512.50000    0.01858
1513.00000    0.02062
1513.50000    0.02042
1514.00000    0.01796
1514.50000    0.01329
1515.00000    0.00645
1515.50000   -0.00244
1516.00000   -0.01325
1516.50000   -0.02581
1517.00000   -0.03990
1517.50000   -0.05530
1518.00000   -0.07171
1518.50000   -0.08884
1519.00000   -0.10637
1519.50000   -0.12396
1520.00000   -0.14126
1520.50000   -0.15793
1521.00000   -0.17362
1521.50000   -0.18801
1522.00000   -0.20081
1522.50000   -0.21176
1523.00000   -0.22063
1523.50000   -0.22724
1524.00000   -0.23146
1524.50000   -0.23322
1525.00000   -0.23250
1525.50000   -0.22931
1526.00000   -0.22375
1526.50000   -0.21591
1527.00000   -0.20598
1527.50000   -0.19415
1528.00000   -0.18064
1528.50000   -0.16570
1529.00000   -0.14959
1529.50000   -0.13259
1530.00000   -0.11496
1530.50000   -0.09697
1531.00000   -0.07886
1531.50000   -0.06086
1532.00000   -0.04319
1532.50000   -0.02603
1533.00000   -0.00952
1533.50000    0.00623
1534.00000    0.02113
1534.50000    0.03515
1535.00000    0.04826
1535.50000    0.06050
1536.00000    0.07191
1536.50000    0.08256
1537.00000    0.09256
1537.50000    0.10200
1538.00000    0.11102
1538.50000    0.11971
1539.00000    0.12821
1539.50000    0.13660
1540.00000    0.14498
1540.50000    0.15339
1541.00000    0.16187
1541.50000    0.17040
1542.00000    0.17896
1542.50000    0.18746
1543.00000    0.19577
1543.50000    0.20376
1544.00000    0.21122
1544.50000    0.21796
1545.00000    0.22375
1545.50000    0.22835
1546.00000    0.23152
1546.50000    0.23303
1547.00000    0.23269
1547.50000    0.23032
1548.00000    0.22579
1548.50000    0.21902
1549.00000    0.20998
1549.50000    0.19871
1550.00000    0.18531
1550.50000    0.16993
1551.00000    0.15279
1551.50000    0.13417
1552.00000    0.11436
1552.50000    0.09373
1553.00000    0.07264
1553.50000    0.05148
1554.00000    0.03062
1554.50000    0.01043
1555.00000   -0.00875
1555.50000   -0.02662
1556.00000   -0.04294
1556.50000   -0.05751
1557.00000   -0.07019
1557.50000   -0.08087
1558.00000   -0.08951
1558.50000   -0.09611
1559.00000   -0.10070
1559.50000   -0.10331
1560.00000   -0.10400
1560.50000   -0.10280
1561.00000   -0.09975
1561.50000   -0.09482
1562.00000   -0.08796
1562.50000   -0.07905
1563.00000   -0.06795
1563.50000   -0.05441
1564.00000   -0.03815
1564.50000   -0.01885
1565.00000    0.00390
1565.50000    0.03050
1566.00000    0.06139
1566.50000    0.09704
1567.00000    0.13788
1567.50000    0.18434
1568.00000    0.23681
1568.50000    0.29564
1569.00000    0.36112
1569.50000    0.43349
1570.00000    0.51292
1570.50000    0.59952
1571.00000    0.69335
1571.50000    0.79441
1572.00000    0.90264
1572.50000    1.01796
1573.00000    1.14022
1573.50000    1.26929
1574.00000    1.40498
1574.50000    1.54710
1575.00000    1.69545
1575.50000    1.84982
1576.00000    2.00998
1576.50000    2.17568
1577.00000    2.34667
1577.50000    2.52265
1578.00000    2.70327
1578.50000    2.88818
1579.00000    3.07692
1579.50000    3.26900
1580.00000    3.46384
1580.50000    3.66078
1581.00000    3.85909
1581.50000    4.05794
1582.00000    4.25645
1582.50000    4.45362
1583.00000    4.64841
1583.50000    4.83970
1584.00000    5.02633
1584.50000    5.20710
1585.00000    5.38076
1585.50000    5.54609
1586.00000    5.70185
1586.50000    5.84681
1587.00000    5.97982
1587.50000    6.09974
1588.00000    6.20553
1588.50000    6.29622
1589.00000    6.37094
1589.50000    6.42897
1590.00000    6.46966
1590.50000    6.49254
1591.00000    6.49727
1591.50000    6.48368
1592.00000    6.45175
1592.50000    6.40161
1593.00000    6.33360
1593.50000    6.24821
1594.00000    6.14609
1594.50000    6.02807
1595.00000    5.89515
1595.50000    5.74846
1596.00000    5.58929
1596.50000    5.41902
1597.00000    5.23916
1597.50000    5.05129
1598.00000    4.85706
1598.50000    4.65813
1599.00000    4.45617
1599.50000    4.25286
1600.00000    4.04979
1600.50000    3.84850
1601.00000    3.65041
1601.50000    3.45684
1602.00000    3.26896
1602.50000    3.08778
1603.00000    2.91417
1603.50000    2.74879
1604.00000    2.59217
1604.50000    2.44467
1605.00000    2.30647
1605.50000    2.17762
1606.00000    2.05803
1606.50000    1.94752
1607.00000    1.84579
1607.50000    1.75247
1608.00000    1.66717
1608.50000    1.58942
1609.00000    1.51880
1609.50000    1.45484
1610.00000    1.39712
1610.50000    1.34527
1611.00000    1.29893
1611.50000    1.25780
1612.00000    1.22164
1612.50000    1.19024
1613.00000    1.16343
1613.50000    1.14107
1614.00000    1.12304
1614.50000    1.10922
1615.00000    1.09948
1615.50000    1.09368
1616.00000    1.09164
1616.50000    1.09315
1617.00000    1.09795
1617.50000    1.10571
1618.00000    1.11607
1618.50000    1.12860
1619.00000    1.14285
1619.50000    1.15829
1620.00000    1.17440
1620.50000    1.19062
1621.00000    1.20640
1621.50000    1.22118
1622.00000    1.23445
1622.50000    1.24572
1623.00000    1.25454
1623.50000    1.26056
1624.00000    1.26345
1624.50000    1.26299
1625.00000    1.25902
1625.50000    1.25145
1626.00000    1.24027
1626.50000    1.22552
1627.00000    1.20732
1627.50000    1.18582
1628.00000    1.16120
1628.50000    1.13370
1629.00000    1.10353
1629.50000    1.07095
1630.00000    1.03619
1630.50000    0.99948
1631.00000    0.96104
1631.50000    0.92105
1632.00000    0.87969
1632.50000    0.83711
1633.00000    0.79343
1633.50000    0.74877
1634.00000    0.70323
1634.50000    0.65688
1635.00000    0.60982
1635.50000    0.56214
1636.00000    0.51393
1636.50000    0.46532
1637.00000    0.41644
1637.50000    0.36745
1638.00000    0.31854
1638.50000    0.26993
1639.00000    0.22184
1639.50000    0.17455
1640.00000    0.12833
1640.50000    0.08349
1641.00000    0.04033
1641.50000   -0.00083
1642.00000   -0.03970
1642.50000   -0.07599
1643.00000   -0.10941
1643.50000   -0.13972
1644.00000   -0.16671
1644.50000   -0.19021
1645.00000   -0.21009
1645.50000   -0.22625
1646.00000   -0.23868
1646.50000   -0.24737
1647.00000   -0.25241
1647.50000   -0.25390
1648.00000   -0.25199
1648.50000   -0.24688
1649.00000   -0.23880
1649.50000   -0.22800
1650.00000   -0.21477
1650.50000   -0.19939
1651.00000   -0.18218
1651.50000   -0.16344
1652.00000   -0.14348
1652.50000   -0.12259
1653.00000   -0.10107
1653.50000   -0.07916
1654.00000   -0.05713
1654.50000   -0.03518
1655.00000   -0.01348
1655.50000    0.00780
1656.00000    0.02858
1656.50000    0.04877
1657.00000    0.06836
1657.50000    0.08736
1658.00000    0.10583
1658.50000    0.12385
1659.00000    0.14155
1659.50000    0.15907
1660.00000    0.17658
1660.50000    0.19426
1661.00000    0.21227
1661.50000    0.23078
1662.00000    0.24992
1662.50000    0.26980
1663.00000    0.29047
1663.50000    0.31195
1664.00000    0.33417
1664.50000    0.35704
1665.00000    0.38037
1665.50000    0.40393
1666.00000    0.42743
1666.50000    0.45053
1667.00000    0.47286
1667.50000    0.49402
1668.00000    0.51359
1668.50000    0.53117
1669.00000    0.54636
1669.50000    0.55882
1670.00000    0.56822
1670.50000    0.57433
1671.00000    0.57694
1671.50000    0.57595
1672.00000    0.57131
1672.50000    0.56306
1673.00000    0.55129
1673.50000    0.53617
1674.00000    0.51792
1674.50000    0.49678
1675.00000    0.47306
1675.50000    0.44704
1676.00000    0.41905
1676.50000    0.38938
1677.00000    0.35833
1677.50000    0.32620
1678.00000    0.29323
1678.50000    0.25968
1679.00000    0.22576
1679.50000    0.19168
1680.00000    0.15765
1680.50000    0.12385
1681.00000    0.09046
1681.50000    0.05769
1682.00000    0.02574
1682.50000   -0.00519
1683.00000   -0.03486
1683.50000   -0.06304
1684.00000   -0.08949
1684.50000   -0.11395
1685.00000   -0.13619
1685.50000   -0.15595
1686.00000   -0.17303
1686.50000   -0.18724
1687.00000   -0.19843
1687.50000   -0.20648
1688.00000   -0.21135
1688.50000   -0.21303
1689.00000   -0.21158
1689.50000   -0.20713
1690.00000   -0.19985
1690.50000   -0.18999
1691.00000   -0.17784
1691.50000   -0.16372
1692.00000   -0.14803
1692.50000   -0.13118
1693.00000   -0.11358
1693.50000   -0.09570
1694.00000   -0.07797
1694.50000   -0.06085
1695.00000   -0.04475
1695.50000   -0.03010
1696.00000   -0.01727
1696.50000   -0.00659
1697.00000    0.00163
1697.50000    0.00713
1698.00000    0.00972
1698.50000    0.00924
1699.00000    0.00563
1699.50000   -0.00117
1700.00000   -0.01110
1700.50000   -0.02407
1701.00000   -0.03992
1701.50000   -0.05844
1702.00000   -0.07933
1702.50000   -0.10228
1703.00000   -0.12688
1703.50000   -0.15271
1704.00000   -0.17930
1704.50000   -0.20614
1705.00000   -0.23271
1705.50000   -0.25847
1706.00000   -0.28287
1706.50000   -0.30539
1707.00000   -0.32551
1707.50000   -0.34275
1708.00000   -0.35666
1708.50000   -0.36688
1709.00000   -0.37306
1709.50000   -0.37497
1710.00000   -0.37243
1710.50000   -0.36536
1711.00000   -0.35376
1711.50000   -0.33771
1712.00000   -0.31741
1712.50000   -0.29311
1713.00000   -0.26516
1713.50000   -0.23396
1714.00000   -0.20001
1714.50000   -0.16380
1715.00000   -0.12590
1715.50000   -0.08690
1716.00000   -0.04736
1716.50000   -0.00789
1717.00000    0.03096
1717.50000    0.06866
1718.00000    0.10471
1718.50000    0.13867
1719.00000    0.17017
1719.50000    0.19888
1720.00000    0.22457
1720.50000    0.24705
1721.00000    0.26624
1721.50000    0.28210
1722.00000    0.29466
1722.50000    0.30403
1723.00000    0.31035
1723.50000    0.31384
1724.00000    0.31473
1724.50000    0.31331
1725.00000    0.30986
1725.50000    0.30472
1726.00000    0.29820
1726.50000    0.29063
1727.00000    0.28232
1727.50000    0.27357
1728.00000    0.26466
1728.50000    0.25586
1729.00000    0.24739
1729.50000    0.23946
1730.00000    0.23223
1730.50000    0.22583
1731.00000    0.22035
1731.50000    0.21585
1732.00000    0.21235
1732.50000    0.20983
1733.00000    0.20824
1733.50000    0.20750
1734.00000    0.20750
1734.50000    0.20808
1735.00000    0.20909
1735.50000    0.21034
1736.00000    0.21163
1736.50000    0.21273
1737.00000    0.21343
1737.50000    0.21350
1738.00000    0.21271
1738.50000    0.21085
1739.00000    0.20771
1739.50000    0.20311
1740.00000    0.19688
1740.50000    0.18889
1741.00000    0.17902
1741.50000    0.16722
1742.00000    0.15347
1742.50000    0.13778
1743.00000    0.12023
1743.50000    0.10095
1744.00000    0.08009
1744.50000    0.05790
1745.00000    0.03465
1745.50000    0.01066
1746.00000   -0.01370
1746.50000   -0.03804
1747.00000   -0.06193
1747.50000   -0.08493
1748.00000   -0.10661
1748.50000   -0.12652
1749.00000   -0.14425
1749.50000   -0.15944
1750.00000   -0.17175
1750.50000   -0.18092
1751.00000   -0.18674
1751.50000   -0.18911
1752.00000   -0.18799
1752.50000   -0.18342
1753.00000   -0.17555
1753.50000   -0.16460
1754.00000   -0.15084
1754.50000   -0.13463
1755.00000   -0.11637
1755.50000   -0.09649
1756.00000   -0.07543
1756.50000   -0.05365
1757.00000   -0.03160
1757.50000   -0.00970
1758.00000    0.01167
1758.50000    0.03217
1759.00000    0.05152
1759.50000    0.06946
1760.00000    0.08581
1760.50000    0.10046
1761.00000    0.11330
1761.50000    0.12431
1762.00000    0.13345
1762.50000    0.14075
1763.00000    0.14624
1763.50000    0.14994
1764.00000    0.15189
1764.50000    0.15213
1765.00000    0.15066
1765.50000    0.14751
1766.00000    0.14267
1766.50000    0.13613
1767.00000    0.12789
1767.50000    0.11795
1768.00000    0.10631
1768.50000    0.09300
1769.00000    0.07806
1769.50000    0.06156
1770.00000    0.04361
1770.50000    0.02433
1771.00000    0.00389
1771.50000   -0.01753
1772.00000   -0.03972
1772.50000   -0.06245
1773.00000   -0.08549
1773.50000   -0.10861
1774.00000   -0.13157
1774.50000   -0.15416
1775.00000   -0.17616
1775.50000   -0.19741
1776.00000   -0.21774
1776.50000   -0.23702
1777.00000   -0.25514
1777.50000   -0.27201
1778.00000   -0.28756
1778.50000   -0.30172
1779.00000   -0.31443
1779.50000   -0.32562
1780.00000   -0.33521
1780.50000   -0.34311
1781.00000   -0.34923
1781.50000   -0.35342
1782.00000   -0.35556
1782.50000   -0.35548
1783.00000   -0.35305
1783.50000   -0.34812
1784.00000   -0.34055
1784.50000   -0.33026
1785.00000   -0.31718
1785.50000   -0.30131
1786.00000   -0.28271
1786.50000   -0.26150
1787.00000   -0.23789
1787.50000   -0.21214
1788.00000   -0.18462
1788.50000   -0.15571
1789.00000   -0.12591
1789.50000   -0.09570
1790.00000   -0.06564
1790.50000   -0.03624
1791.00000   -0.00806
1791.50000    0.01843
1792.00000    0.04276
1792.50000    0.06458
1793.00000    0.08357
1793.50000    0.09955
1794.00000    0.11241
1794.50000    0.12216
1795.00000    0.12890
1795.50000    0.13284
1796.00000    0.13424
1796.50000    0.13346
1797.00000    0.13089
1797.50000    0.12695
1798.00000    0.12209
1798.50000    0.11670
1799.00000    0.11119
1799.50000    0.10590
1800.00000    0.10112
1800.50000    0.09707
1801.00000    0.09391
1801.50000    0.09172
1802.00000    0.09054
1802.50000    0.09032
1803.00000    0.09098
1803.50000    0.09240
1804.00000    0.09444
1804.50000    0.09695
1805.00000    0.09980
1805.50000    0.10285
1806.00000    0.10600
1806.50000    0.10920
1807.00000    0.11242
1807.50000    0.11566
1808.00000    0.11897
1808.50000    0.12243
1809.00000    0.12613
1809.50000    0.13017
1810.00000    0.13467
1810.50000    0.13969
1811.00000    0.14531
1811.50000    0.15152
1812.00000    0.15832
1812.50000    0.16560
1813.00000    0.17323
1813.50000    0.18101
1814.00000    0.18868
1814.50000    0.19596
1815.00000    0.20251
1815.50000    0.20798
1816.00000    0.21203
1816.50000    0.21431
1817.00000    0.21450
1817.50000    0.21233
1818.00000    0.20757
1818.50000    0.20008
1819.00000    0.18978
1819.50000    0.17667
1820.00000    0.16085
1820.50000    0.14249
1821.00000    0.12182
1821.50000    0.09915
1822.00000    0.07486
1822.50000    0.04934
1823.00000    0.02302
1823.50000   -0.00368
1824.00000   -0.03033
1824.50000   -0.05654
1825.00000   -0.08197
1825.50000   -0.10629
1826.00000   -0.12928
1826.50000   -0.15075
1827.00000   -0.17059
1827.50000   -0.18873
1828.00000   -0.20516
1828.50000   -0.21992
1829.00000   -0.23307
1829.50000   -0.24469
1830.00000   -0.25487
1830.50000   -0.26368
1831.00000   -0.27117
1831.50000   -0.27738
1832.00000   -0.28230
1832.50000   -0.28588
1833.00000   -0.28803
1833.50000   -0.28865
1834.00000   -0.28757
1834.50000   -0.28464
1835.00000   -0.27968
1835.50000   -0.27250
1836.00000   -0.26295
1836.50000   -0.25089
1837.00000   -0.23623
1837.50000   -0.21891
1838.00000   -0.19896
1838.50000   -0.17643
1839.00000   -0.15147
1839.50000   -0.12426
1840.00000   -0.09508
1840.50000   -0.06423
1841.00000   -0.03209
1841.50000    0.00096
1842.00000    0.03447
1842.50000    0.06801
1843.00000    0.10113
1843.50000    0.13337
1844.00000    0.16431
1844.50000    0.19354
1845.00000    0.22069
1845.50000    0.24540
1846.00000    0.26739
1846.50000    0.28639
1847.00000    0.30219
1847.50000    0.31461
1848.00000    0.32355
1848.50000    0.32891
1849.00000    0.33068
1849.50000    0.32887
1850.00000    0.32354
1850.50000    0.31480
1851.00000    0.30280
1851.50000    0.28773
1852.00000    0.26982
1852.50000    0.24933
1853.00000    0.22658
1853.50000    0.20189
1854.00000    0.17562
1854.50000    0.14815
1855.00000    0.11986
1855.50000    0.09116
1856.00000    0.06242
1856.50000    0.03404
1857.00000    0.00640
1857.50000   -0.02018
1858.00000   -0.04535
1858.50000   -0.06885
1859.00000   -0.09042
1859.50000   -0.10984
1860.00000   -0.12694
1860.50000   -0.14160
1861.00000   -0.15372
1861.50000   -0.16323
1862.00000   -0.17012
1862.50000   -0.17440
1863.00000   -0.17610
1863.50000   -0.17528
1864.00000   -0.17204
1864.50000   -0.16649
1865.00000   -0.15875
1865.50000   -0.14898
1866.00000   -0.13734
1866.50000   -0.12404
1867.00000   -0.10927
1867.50000   -0.09328
1868.00000   -0.07631
1868.50000   -0.05864
1869.00000   -0.04055
1869.50000   -0.02236
1870.00000   -0.00439
1870.50000    0.01303
1871.00000    0.02954
1871.50000    0.04482
1872.00000    0.05850
1872.50000    0.07028
1873.00000    0.07983
1873.50000    0.08688
1874.00000    0.09117
1874.50000    0.09252
1875.00000    0.09076
1875.50000    0.08581
1876.00000    0.07765
1876.50000    0.06631
1877.00000    0.05191
1877.50000    0.03461
1878.00000    0.01466
1878.50000   -0.00762
1879.00000   -0.03188
1879.50000   -0.05771
1880.00000   -0.08466
1880.50000   -0.11224
1881.00000   -0.13997
1881.50000   -0.16734
1882.00000   -0.19386
1882.50000   -0.21904
1883.00000   -0.24246
1883.50000   -0.26369
1884.00000   -0.28237
1884.50000   -0.29819
1885.00000   -0.31090
1885.50000   -0.32031
1886.00000   -0.32626
1886.50000   -0.32870
1887.00000   -0.32760
1887.50000   -0.32298
1888.00000   -0.31494
1888.50000   -0.30360
1889.00000   -0.28911
1889.50000   -0.27167
1890.00000   -0.25150
1890.50000   -0.22884
1891.00000   -0.20396
1891.50000   -0.17713
1892.00000   -0.14866
1892.50000   -0.11885
1893.00000   -0.08801
1893.50000   -0.05648
1894.00000   -0.02458
1894.50000    0.00735
1895.00000    0.03897
1895.50000    0.06995
1896.00000    0.09997
1896.50000    0.12871
1897.00000    0.15589
1897.50000    0.18124
1898.00000    0.20451
1898.50000    0.22552
1899.00000    0.24408
1899.50000    0.26008
1900.00000    0.27343
1900.50000    0.28411
1901.00000    0.29211
1901.50000    0.29749
1902.00000    0.30033
1902.50000    0.30073
1903.00000    0.29885
1903.50000    0.29485
1904.00000    0.28889
1904.50000    0.28118
1905.00000    0.27189
1905.50000    0.26123
1906.00000    0.24937
1906.50000    0.23650
1907.00000    0.22278
1907.50000    0.20839
1908.00000    0.19347
1908.50000    0.17818
1909.00000    0.16263
1909.50000    0.14697
1910.00000    0.13131
1910.50000    0.11574
1911.00000    0.10037
1911.50000    0.08526
1912.00000    0.07047
1912.50000    0.05605
1913.00000    0.04201
1913.50000    0.02836
1914.00000    0.01507
1914.50000    0.00211
1915.00000   -0.01059
1915.50000   -0.02307
1916.00000   -0.03540
1916.50000   -0.04764
1917.00000   -0.05983
1917.50000   -0.07197
1918.00000   -0.08407
1918.50000   -0.09607
1919.00000   -0.10786
1919.50000   -0.11930
1920.00000   -0.13020
1920.50000   -0.14032
1921.00000   -0.14940
1921.50000   -0.15714
1922.00000   -0.16323
1922.50000   -0.16736
1923.00000   -0.16925
1923.50000   -0.16866
1924.00000   -0.16539
1924.50000   -0.15933
1925.00000   -0.15044
1925.50000   -0.13877
1926.00000   -0.12447
1926.50000   -0.10781
1927.00000   -0.08911
1927.50000   -0.06879
1928.00000   -0.04734
1928.50000   -0.02528
1929.00000   -0.00316
1929.50000    0.01846
1930.00000    0.03906
1930.50000    0.05816
1931.00000    0.07534
1931.50000    0.09027
1932.00000    0.10268
1932.50000    0.11243
1933.00000    0.11946
1933.50000    0.12378
1934.00000    0.12550
1934.50000    0.12480
1935.00000    0.12189
1935.50000    0.11703
1936.00000    0.11051
1936.50000    0.10261
1937.00000    0.09360
1937.50000    0.08374
1938.00000    0.07326
1938.50000    0.06238
1939.00000    0.05125
1939.50000    0.04003
1940.00000    0.02886
1940.50000    0.01786
1941.00000    0.00713
1941.50000   -0.00318
1942.00000   -0.01297
1942.50000   -0.02206
1943.00000   -0.03030
1943.50000   -0.03751
1944.00000   -0.04349
1944.50000   -0.04805
1945.00000   -0.05099
1945.50000   -0.05215
1946.00000   -0.05139
1946.50000   -0.04862
1947.00000   -0.04381
1947.50000   -0.03699
1948.00000   -0.02827
1948.50000   -0.01784
1949.00000   -0.00597
1949.50000    0.00702
1950.00000    0.02074
1950.50000    0.03475
1951.00000    0.04861
1951.50000    0.06186
1952.00000    0.07405
1952.50000    0.08477
1953.00000    0.09368
1953.50000    0.10048
1954.00000    0.10497
1954.50000    0.10705
1955.00000    0.10668
1955.50000    0.10395
1956.00000    0.09901
1956.50000    0.09211
1957.00000    0.08355
1957.50000    0.07369
1958.00000    0.06292
1958.50000    0.05166
1959.00000    0.04031
1959.50000    0.02927
1960.00000    0.01891
1960.50000    0.00953
1961.00000    0.00140
1961.50000   -0.00529
1962.00000   -0.01040
1962.50000   -0.01388
1963.00000   -0.01575
1963.50000   -0.01607
1964.00000   -0.01500
1964.50000   -0.01272
1965.00000   -0.00948
1965.50000   -0.00554
1966.00000   -0.00122
1966.50000    0.00319
1967.00000    0.00735
1967.50000    0.01097
1968.00000    0.01375
1968.50000    0.01543
1969.00000    0.01578
1969.50000    0.01463
1970.00000    0.01185
1970.50000    0.00737
1971.00000    0.00118
1971.50000   -0.00666
1972.00000   -0.01605
1972.50000   -0.02682
1973.00000   -0.03874
1973.50000   -0.05154
1974.00000   -0.06491
1974.50000   -0.07852
1975.00000   -0.09201
1975.50000   -0.10503
1976.00000   -0.11721
1976.50000   -0.12823
1977.00000   -0.13778
1977.50000   -0.14558
1978.00000   -0.15141
1978.50000   -0.15509
1979.00000   -0.15650
1979.50000   -0.15554
1980.00000   -0.15221
1980.50000   -0.14651
1981.00000   -0.13850
1981.50000   -0.12827
1982.00000   -0.11591
1982.50000   -0.10155
1983.00000   -0.08530
1983.50000   -0.06726
1984.00000   -0.04752
1984.50000   -0.02616
1985.00000   -0.00321
1985.50000    0.02132
1986.00000    0.04743
1986.50000    0.07518
1987.00000    0.10460
1987.50000    0.13578
1988.00000    0.16878
1988.50000    0.20365
1989.00000    0.24044
1989.50000    0.27914
1990.00000    0.31971
1990.50000    0.36207
1991.00000    0.40607
1991.50000    0.45149
1992.00000    0.49806
1992.50000    0.54543
1993.00000    0.59322
1993.50000    0.64097
1994.00000    0.68822
1994.50000    0.73444
1995.00000    0.77912
1995.50000    0.82175
1996.00000    0.86184
1996.50000    0.89894
1997.00000    0.93267
1997.50000    0.96268
1998.00000    0.98876
1998.50000    1.01072
1999.00000    1.02852
1999.50000    1.04218
2000.00000    1.05182
2000.50000    1.05764
2001.00000    1.05988
2001.50000    1.05888
2002.00000    1.05498
2002.50000    1.04855
2003.00000    1.03995
2003.50000    1.02951
2004.00000    1.01753
2004.50000    1.00425
2005.00000    0.98984
2005.50000    0.97436
2006.00000    0.95784
2006.50000    0.94018
2007.00000    0.92121
2007.50000    0.90071
2008.00000    0.87838
2008.50000    0.85390
2009.00000    0.82690
2009.50000    0.79706
2010.00000    0.76403
2010.50000    0.72755
2011.00000    0.68738
2011.50000    0.64341
2012.00000    0.59558
2012.50000    0.54396
2013.00000    0.48873
2013.50000    0.43017
2014.00000    0.36867
2014.50000    0.30473
2015.00000    0.23894
2015.50000    0.17196
2016.00000    0.10454
2016.50000    0.03745
2017.00000   -0.02849
2017.50000   -0.09247
2018.00000   -0.15365
2018.50000   -0.21125
2019.00000   -0.26451
2019.50000   -0.31273
2020.00000   -0.35529
2020.50000   -0.39164
2021.00000   -0.42135
2021.50000   -0.44409
2022.00000   -0.45962
2022.50000   -0.46787
2023.00000   -0.46887
2023.50000   -0.46277
2024.00000   -0.44988
2024.50000   -0.43061
2025.00000   -0.40550
2025.50000   -0.37520
2026.00000   -0.34046
2026.50000   -0.30212
2027.00000   -0.26106
2027.50000   -0.21823
2028.00000   -0.17457
2028.50000   -0.13104
2029.00000   -0.08854
2029.50000   -0.04792
2030.00000   -0.00995
2030.50000    0.02472
2031.00000    0.05558
2031.50000    0.08225
2032.00000    0.10452
2032.50000    0.12235
2033.00000    0.13587
2033.50000    0.14535
2034.00000    0.15123
2034.50000    0.15407
2035.00000    0.15453
2035.50000    0.15335
2036.00000    0.15132
2036.50000    0.14922
2037.00000    0.14784
2037.50000    0.14790
2038.00000    0.15004
2038.50000    0.15479
2039.00000    0.16256
2039.50000    0.17363
2040.00000    0.18812
2040.50000    0.20600
2041.00000    0.22709
2041.50000    0.25111
2042.00000    0.27763
2042.50000    0.30612
2043.00000    0.33599
2043.50000    0.36660
2044.00000    0.39726
2044.50000    0.42730
2045.00000    0.45606
2045.50000    0.48293
2046.00000    0.50735
2046.50000    0.52882
2047.00000    0.54694
2047.50000    0.56137
2048.00000    0.57188
2048.50000    0.57829
2049.00000    0.58054
2049.50000    0.57860
2050.00000    0.57253
2050.50000    0.56244
2051.00000    0.54848
2051.50000    0.53085
2052.00000    0.50979
2052.50000    0.48554
2053.00000    0.45841
2053.50000    0.42869
2054.00000    0.39672
2054.50000    0.36286
2055.00000    0.32748
2055.50000    0.29098
2056.00000    0.25379
2056.50000    0.21635
2057.00000    0.17912
2057.50000    0.14257
2058.00000    0.10718
2058.50000    0.07343
2059.00000    0.04182
2059.50000    0.01279
2060.00000   -0.01320
2060.50000   -0.03575
2061.00000   -0.05449
2061.50000   -0.06912
2062.00000   -0.07936
2062.50000   -0.08504
2063.00000   -0.08603
2063.50000   -0.08229
2064.00000   -0.07384
2064.50000   -0.06079
2065.00000   -0.04330
2065.50000   -0.02163
2066.00000    0.00393
2066.50000    0.03304
2067.00000    0.06529
2067.50000    0.10025
2068.00000    0.13747
2068.50000    0.17649
2069.00000    0.21684
2069.50000    0.25806
2070.00000    0.29970
2070.50000    0.34133
2071.00000    0.38254
2071.50000    0.42296
2072.00000    0.46223
2072.50000    0.50004
2073.00000    0.53607
2073.50000    0.57003
2074.00000    0.60164
2074.50000    0.63063
2075.00000    0.65670
2075.50000    0.67958
2076.00000    0.69897
2076.50000    0.71453
2077.00000    0.72595
2077.50000    0.73290
2078.00000    0.73503
2078.50000    0.73204
2079.00000    0.72363
2079.50000    0.70956
2080.00000    0.68965
2080.50000    0.66380
2081.00000    0.63201
2081.50000    0.59441
2082.00000    0.55122
2082.50000    0.50284
2083.00000    0.44977
2083.50000    0.39267
2084.00000    0.33231
2084.50000    0.26956
2085.00000    0.20537
2085.50000    0.14076
2086.00000    0.07674
2086.50000    0.01435
2087.00000   -0.04543
2087.50000   -0.10171
2088.00000   -0.15366
2088.50000   -0.20062
2089.00000   -0.24202
2089.50000   -0.27747
2090.00000   -0.30673
2090.50000   -0.32970
2091.00000   -0.34641
2091.50000   -0.35703
2092.00000   -0.36184
2092.50000   -0.36118
2093.00000   -0.35547
2093.50000   -0.34516
2094.00000   -0.33073
2094.50000   -0.31265
2095.00000   -0.29137
2095.50000   -0.26734
2096.00000   -0.24095
2096.50000   -0.21258
2097.00000   -0.18258
2097.50000   -0.15127
2098.00000   -0.11895
2098.50000   -0.08594
2099.00000   -0.05254
2099.50000   -0.01906
2100.00000    0.01415
2100.50000    0.04676
2101.00000    0.07838
2101.50000    0.10863
2102.00000    0.13711
2102.50000    0.16341
2103.00000    0.18716
2103.50000    0.20798
2104.00000    0.22555
2104.50000    0.23958
2105.00000    0.24985
2105.50000    0.25622
2106.00000    0.25860
2106.50000    0.25700
2107.00000    0.25151
2107.50000    0.24229
2108.00000    0.22957
2108.50000    0.21366
2109.00000    0.19490
2109.50000    0.17368
2110.00000    0.15043
2110.50000    0.12558
2111.00000    0.09956
2111.50000    0.07280
2112.00000    0.04571
2112.50000    0.01868
2113.00000   -0.00795
2113.50000   -0.03385
2114.00000   -0.05875
2114.50000   -0.08240
2115.00000   -0.10459
2115.50000   -0.12514
2116.00000   -0.14389
2116.50000   -0.16072
2117.00000   -0.17553
2117.50000   -0.18823
2118.00000   -0.19875
2118.50000   -0.20705
2119.00000   -0.21310
2119.50000   -0.21688
2120.00000   -0.21838
2120.50000   -0.21765
2121.00000   -0.21472
2121.50000   -0.20967
2122.00000   -0.20259
2122.50000   -0.19362
2123.00000   -0.18290
2123.50000   -0.17061
2124.00000   -0.15697
2124.50000   -0.14220
2125.00000   -0.12654
2125.50000   -0.11025
2126.00000   -0.09358
2126.50000   -0.07681
2127.00000   -0.06017
2127.50000   -0.04390
2128.00000   -0.02821
2128.50000   -0.01328
2129.00000    0.00074
2129.50000    0.01374
2130.00000    0.02566
2130.50000    0.03644
2131.00000    0.04610
2131.50000    0.05467
2132.00000    0.06219
2132.50000    0.06875
2133.00000    0.07443
2133.50000    0.07932
2134.00000    0.08351
2134.50000    0.08707
2135.00000    0.09005
2135.50000    0.09251
2136.00000    0.09444
2136.50000    0.09586
2137.00000    0.09674
2137.50000    0.09704
2138.00000    0.09672
2138.50000    0.09574
2139.00000    0.09407
2139.50000    0.09169
2140.00000    0.08864
2140.50000    0.08494
2141.00000    0.08072
2141.50000    0.07610
2142.00000    0.07126
2142.50000    0.06646
2143.00000    0.06194
2143.50000    0.05801
2144.00000    0.05499
2144.50000    0.05320
2145.00000    0.05293
2145.50000    0.05447
2146.00000    0.05806
2146.50000    0.06385
2147.00000    0.07195
2147.50000    0.08237
2148.00000    0.09502
2148.50000    0.10973
2149.00000    0.12623
2149.50000    0.14415
2150.00000    0.16304
2150.50000    0.18239
2151.00000    0.20163
2151.50000    0.22018
2152.00000    0.23741
2152.50000    0.25273
2153.00000    0.26556
2153.50000    0.27539
2154.00000    0.28177
2154.50000    0.28433
2155.00000    0.28280
2155.50000    0.27703
2156.00000    0.26696
2156.50000    0.25265
2157.00000    0.23429
2157.50000    0.21213
2158.00000    0.18656
2158.50000    0.15803
2159.00000    0.12705
2159.50000    0.09421
2160.00000    0.06012
2160.50000    0.02543
2161.00000   -0.00923
2161.50000   -0.04322
2162.00000   -0.07593
2162.50000   -0.10679
2163.00000   -0.13528
2163.50000   -0.16094
2164.00000   -0.18339
2164.50000   -0.20232
2165.00000   -0.21753
2165.50000   -0.22887
2166.00000   -0.23633
2166.50000   -0.23997
2167.00000   -0.23995
2167.50000   -0.23651
2168.00000   -0.22997
2168.50000   -0.22072
2169.00000   -0.20921
2169.50000   -0.19594
2170.00000   -0.18142
2170.50000   -0.16617
2171.00000   -0.15071
2171.50000   -0.13553
2172.00000   -0.12106
2172.50000   -0.10769
2173.00000   -0.09573
2173.50000   -0.08541
2174.00000   -0.07685
2174.50000   -0.07011
2175.00000   -0.06515
2175.50000   -0.06183
2176.00000   -0.05996
2176.50000   -0.05930
2177.00000   -0.05953
2177.50000   -0.06034
2178.00000   -0.06140
2178.50000   -0.06240
2179.00000   -0.06303
2179.50000   -0.06306
2180.00000   -0.06228
2180.50000   -0.06059
2181.00000   -0.05789
2181.50000   -0.05422
2182.00000   -0.04962
2182.50000   -0.04424
2183.00000   -0.03826
2183.50000   -0.03190
2184.00000   -0.02542
2184.50000   -0.01910
2185.00000   -0.01321
2185.50000   -0.00805
2186.00000   -0.00388
2186.50000   -0.00094
2187.00000    0.00055
2187.50000    0.00041
2188.00000   -0.00149
2188.50000   -0.00524
2189.00000   -0.01087
2189.50000   -0.01837
2190.00000   -0.02767
2190.50000   -0.03862
2191.00000   -0.05105
2191.50000   -0.06472
2192.00000   -0.07934
2192.50000   -0.09455
2193.00000   -0.10999
2193.50000   -0.12523
2194.00000   -0.13983
2194.50000   -0.15334
2195.00000   -0.16529
2195.50000   -0.17524
2196.00000   -0.18277
2196.50000   -0.18751
2197.00000   -0.18912
2197.50000   -0.18736
2198.00000   -0.18205
2198.50000   -0.17308
2199.00000   -0.16045
2199.50000   -0.14425
2200.00000   -0.12464
2200.50000   -0.10188
2201.00000   -0.07630
2201.50000   -0.04828
2202.00000   -0.01827
2202.50000    0.01325
2203.00000    0.04579
2203.50000    0.07883
2204.00000    0.11187
2204.50000    0.14441
2205.00000    0.17599
2205.50000    0.20618
2206.00000    0.23459
2206.50000    0.26086
2207.00000    0.28469
2207.50000    0.30582
2208.00000    0.32405
2208.50000    0.33919
2209.00000    0.35114
2209.50000    0.35982
2210.00000    0.36520
2210.50000    0.36730
2211.00000    0.36618
2211.50000    0.36194
2212.00000    0.35473
2212.50000    0.34473
2213.00000    0.33217
2213.50000    0.31728
2214.00000    0.30033
2214.50000    0.28161
2215.00000    0.26140
2215.50000    0.23998
2216.00000    0.21761
2216.50000    0.19451
2217.00000    0.17088
2217.50000    0.14685
2218.00000    0.12254
2218.50000    0.09797
2219.00000    0.07315
2219.50000    0.04803
2220.00000    0.02255
2220.50000   -0.00341
2221.00000   -0.02993
2221.50000   -0.05709
2222.00000   -0.08495
2222.50000   -0.11351
2223.00000   -0.14269
2223.50000   -0.17237
2224.00000   -0.20231
2224.50000   -0.23221
2225.00000   -0.26167
2225.50000   -0.29022
2226.00000   -0.31735
2226.50000   -0.34247
2227.00000   -0.36501
2227.50000   -0.38437
2228.00000   -0.40000
2228.50000   -0.41140
2229.00000   -0.41814
2229.50000   -0.41992
2230.00000   -0.41653
2230.50000   -0.40790
2231.00000   -0.39410
2231.50000   -0.37531
2232.00000   -0.35189
2232.50000   -0.32426
2233.00000   -0.29299
2233.50000   -0.25870
2234.00000   -0.22208
2234.50000   -0.18386
2235.00000   -0.14476
2235.50000   -0.10549
2236.00000   -0.06671
2236.50000   -0.02903
2237.00000    0.00701
2237.50000    0.04097
2238.00000    0.07250
2238.50000    0.10133
2239.00000    0.12730
2239.50000    0.15030
2240.00000    0.17033
2240.50000    0.18740
2241.00000    0.20161
2241.50000    0.21305
2242.00000    0.22184
2242.50000    0.22810
2243.00000    0.23191
2243.50000    0.23338
2244.00000    0.23256
2244.50000    0.22951
2245.00000    0.22424
2245.50000    0.21677
2246.00000    0.20712
2246.50000    0.19531
2247.00000    0.18138
2247.50000    0.16541
2248.00000    0.14754
2248.50000    0.12793
2249.00000    0.10681
2249.50000    0.08451
2250.00000    0.06137
2250.50000    0.03783
2251.00000    0.01435
2251.50000   -0.00854
2252.00000   -0.03030
2252.50000   -0.05039
2253.00000   -0.06826
2253.50000   -0.08340
2254.00000   -0.09534
2254.50000   -0.10367
2255.00000   -0.10806
2255.50000   -0.10825
2256.00000   -0.10408
2256.50000   -0.09549
2257.00000   -0.08249
2257.50000   -0.06521
2258.00000   -0.04381
2258.50000   -0.01857
2259.00000    0.01024
2259.50000    0.04226
2260.00000    0.07713
2260.50000    0.11448
2261.00000    0.15395
2261.50000    0.19517
2262.00000    0.23780
2262.50000    0.28153
2263.00000    0.32606
2263.50000    0.37108
2264.00000    0.41634
2264.50000    0.46156
2265.00000    0.50644
2265.50000    0.55068
2266.00000    0.59395
2266.50000    0.63588
2267.00000    0.67606
2267.50000    0.71403
2268.00000    0.74931
2268.50000    0.78136
2269.00000    0.80963
2269.50000    0.83356
2270.00000    0.85259
2270.50000    0.86620
2271.00000    0.87390
2271.50000    0.87530
2272.00000    0.87008
2272.50000    0.85803
2273.00000    0.83909
2273.50000    0.81330
2274.00000    0.78088
2274.50000    0.74220
2275.00000    0.69774
2275.50000    0.64813
2276.00000    0.59413
2276.50000    0.53658
2277.00000    0.47639
2277.50000    0.41453
2278.00000    0.35197
2278.50000    0.28968
2279.00000    0.22859
2279.50000    0.16957
2280.00000    0.11337
2280.50000    0.06068
2281.00000    0.01205
2281.50000   -0.03212
2282.00000   -0.07152
2282.50000   -0.10600
2283.00000   -0.13553
2283.50000   -0.16018
2284.00000   -0.18014
2284.50000   -0.19568
2285.00000   -0.20714
2285.50000   -0.21489
2286.00000   -0.21936
2286.50000   -0.22099
2287.00000   -0.22021
2287.50000   -0.21743
2288.00000   -0.21306
2288.50000   -0.20745
2289.00000   -0.20090
2289.50000   -0.19370
2290.00000   -0.18605
2290.50000   -0.17813
2291.00000   -0.17005
2291.50000   -0.16188
2292.00000   -0.15365
2292.50000   -0.14535
2293.00000   -0.13695
2293.50000   -0.12839
2294.00000   -0.11958
2294.50000   -0.11044
2295.00000   -0.10086
2295.50000   -0.09076
2296.00000   -0.08006
2296.50000   -0.06870
2297.00000   -0.05663
2297.50000   -0.04385
2298.00000   -0.03036
2298.50000   -0.01623
2299.00000   -0.00154
2299.50000    0.01360
2300.00000    0.02902
2300.50000    0.04457
2301.00000    0.06002
2301.50000    0.07518
2302.00000    0.08981
2302.50000    0.10370
2303.00000    0.11664
2303.50000    0.12842
2304.00000    0.13886
2304.50000    0.14783
2305.00000    0.15519
2305.50000    0.16087
2306.00000    0.16480
2306.50000    0.16696
2307.00000    0.16734
2307.50000    0.16598
2308.00000    0.16290
2308.50000    0.15816
2309.00000    0.15181
2309.50000    0.14390
2310.00000    0.13451
2310.50000    0.12368
2311.00000    0.11148
2311.50000    0.09796
2312.00000    0.08320
2312.50000    0.06729
2313.00000    0.05033
2313.50000    0.03244
2314.00000    0.01378
2314.50000   -0.00545
2315.00000   -0.02502
2315.50000   -0.04468
2316.00000   -0.06415
2316.50000   -0.08310
2317.00000   -0.10121
2317.50000   -0.11816
2318.00000   -0.13362
2318.50000   -0.14729
2319.00000   -0.15892
2319.50000   -0.16828
2320.00000   -0.17522
2320.50000   -0.17963
2321.00000   -0.18146
2321.50000   -0.18076
2322.00000   -0.17760
2322.50000   -0.17211
2323.00000   -0.16450
2323.50000   -0.15496
2324.00000   -0.14373
2324.50000   -0.13106
2325.00000   -0.11719
2325.50000   -0.10233
2326.00000   -0.08669
2326.50000   -0.07044
2327.00000   -0.05371
2327.50000   -0.03663
2328.00000   -0.01928
2328.50000   -0.00170
2329.00000    0.01606
2329.50000    0.03398
2330.00000    0.05205
2330.50000    0.07024
2331.00000    0.08855
2331.50000    0.10697
2332.00000    0.12548
2332.50000    0.14407
2333.00000    0.16272
2333.50000    0.18142
2334.00000    0.20017
2334.50000    0.21897
2335.00000    0.23781
2335.50000    0.25671
2336.00000    0.27566
2336.50000    0.29466
2337.00000    0.31366
2337.50000    0.33260
2338.00000    0.35136
2338.50000    0.36976
2339.00000    0.38757
2339.50000    0.40449
2340.00000    0.42012
2340.50000    0.43401
2341.00000    0.44565
2341.50000    0.45449
2342.00000    0.45993
2342.50000    0.46140
2343.00000    0.45834
2343.50000    0.45023
2344.00000    0.43667
2344.50000    0.41736
2345.00000    0.39214
2345.50000    0.36101
2346.00000    0.32416
2346.50000    0.28195
2347.00000    0.23492
2347.50000    0.18379
2348.00000    0.12942
2348.50000    0.07279
2349.00000    0.01500
2349.50000   -0.04283
2350.00000   -0.09953
2350.50000   -0.15397
2351.00000   -0.20507
2351.50000   -0.25186
2352.00000   -0.29348
2352.50000   -0.32925
2353.00000   -0.35863
2353.50000   -0.38128
2354.00000   -0.39706
2354.50000   -0.40600
2355.00000   -0.40830
2355.50000   -0.40433
2356.00000   -0.39461
2356.50000   -0.37973
2357.00000   -0.36042
2357.50000   -0.33742
2358.00000   -0.31152
2358.50000   -0.28350
2359.00000   -0.25413
2359.50000   -0.22409
2360.00000   -0.19403
2360.50000   -0.16449
2361.00000   -0.13592
2361.50000   -0.10868
2362.00000   -0.08299
2362.50000   -0.05902
2363.00000   -0.03681
2363.50000   -0.01634
2364.00000    0.00248
2364.50000    0.01979
2365.00000    0.03575
2365.50000    0.05054
2366.00000    0.06433
2366.50000    0.07728
2367.00000    0.08951
2367.50000    0.10111
2368.00000    0.11211
2368.50000    0.12252
2369.00000    0.13230
2369.50000    0.14138
2370.00000    0.14968
2370.50000    0.15712
2371.00000    0.16361
2371.50000    0.16912
2372.00000    0.17363
2372.50000    0.17717
2373.00000    0.17983
2373.50000    0.18176
2374.00000    0.18314
2374.50000    0.18419
2375.00000    0.18518
2375.50000    0.18637
2376.00000    0.18801
2376.50000    0.19033
2377.00000    0.19351
2377.50000    0.19765
2378.00000    0.20279
2378.50000    0.20887
2379.00000    0.21576
2379.50000    0.22323
2380.00000    0.23097
2380.50000    0.23864
2381.00000    0.24584
2381.50000    0.25216
2382.00000    0.25720
2382.50000    0.26059
2383.00000    0.26204
2383.50000    0.26132
2384.00000    0.25827
2384.50000    0.25286
2385.00000    0.24514
2385.50000    0.23523
2386.00000    0.22336
2386.50000    0.20980
2387.00000    0.19485
2387.50000    0.17883
2388.00000    0.16206
2388.50000    0.14479
2389.00000    0.12727
2389.50000    0.10963
2390.00000    0.09198
2390.50000    0.07430
2391.00000    0.05654
2391.50000    0.03856
2392.00000    0.02021
2392.50000    0.00128
2393.00000   -0.01842
2393.50000   -0.03907
2394.00000   -0.06079
2394.50000   -0.08366
2395.00000   -0.10767
2395.50000   -0.13271
2396.00000   -0.15859
2396.50000   -0.18502
2397.00000   -0.21163
2397.50000   -0.23797
2398.00000   -0.26353
2398.50000   -0.28776
2399.00000   -0.31011
2399.50000   -0.33003
2400.00000   -0.34697
2400.50000   -0.36048
2401.00000   -0.37015
2401.50000   -0.37564
2402.00000   -0.37673
2402.50000   -0.37328
2403.00000   -0.36527
2403.50000   -0.35276
2404.00000   -0.33594
2404.50000   -0.31505
2405.00000   -0.29044
2405.50000   -0.26253
2406.00000   -0.23179
2406.50000   -0.19874
2407.00000   -0.16393
2407.50000   -0.12795
2408.00000   -0.09139
2408.50000   -0.05483
2409.00000   -0.01887
2409.50000    0.01595
2410.00000    0.04909
2410.50000    0.08005
2411.00000    0.10839
2411.50000    0.13373
2412.00000    0.15572
2412.50000    0.17412
2413.00000    0.18872
2413.50000    0.19941
2414.00000    0.20615
2414.50000    0.20898
2415.00000    0.20799
2415.50000    0.20336
2416.00000    0.19532
2416.50000    0.18418
2417.00000    0.17025
2417.50000    0.15391
2418.00000    0.13554
2418.50000    0.11556
2419.00000    0.09435
2419.50000    0.07230
2420.00000    0.04977
2420.50000    0.02710
2421.00000    0.00457
2421.50000   -0.01757
2422.00000   -0.03912
2422.50000   -0.05992
2423.00000   -0.07986
2423.50000   -0.09887
2424.00000   -0.11690
2424.50000   -0.13393
2425.00000   -0.14993
2425.50000   -0.16490
2426.00000   -0.17881
2426.50000   -0.19160
2427.00000   -0.20320
2427.50000   -0.21346
2428.00000   -0.22223
2428.50000   -0.22930
2429.00000   -0.23439
2429.50000   -0.23720
2430.00000   -0.23741
2430.50000   -0.23467
2431.00000   -0.22862
2431.50000   -0.21892
2432.00000   -0.20528
2432.50000   -0.18743
2433.00000   -0.16521
2433.50000   -0.13852
2434.00000   -0.10738
2434.50000   -0.07192
2435.00000   -0.03242
2435.50000    0.01075
2436.00000    0.05709
2436.50000    0.10595
2437.00000    0.15664
2437.50000    0.20834
2438.00000    0.26019
2438.50000    0.31132
2439.00000    0.36083
2439.50000    0.40787
2440.00000    0.45164
2440.50000    0.49141
2441.00000    0.52660
2441.50000    0.55674
2442.00000    0.58149
2442.50000    0.60069
2443.00000    0.61434
2443.50000    0.62257
2444.00000    0.62568
2444.50000    0.62408
2445.00000    0.61830
2445.50000    0.60896
2446.00000    0.59671
2446.50000    0.58225
2447.00000    0.56629
2447.50000    0.54946
2448.00000    0.53238
2448.50000    0.51555
2449.00000    0.49940
2449.50000    0.48422
2450.00000    0.47019
2450.50000    0.45735
2451.00000    0.44563
2451.50000    0.43485
2452.00000    0.42472
2452.50000    0.41487
2453.00000    0.40490
2453.50000    0.39436
2454.00000    0.38280
2454.50000    0.36979
2455.00000    0.35498
2455.50000    0.33805
2456.00000    0.31879
2456.50000    0.29708
2457.00000    0.27294
2457.50000    0.24646
2458.00000    0.21787
2458.50000    0.18750
2459.00000    0.15574
2459.50000    0.12310
2460.00000    0.09009
2460.50000    0.05728
2461.00000    0.02523
2461.50000   -0.00551
2462.00000   -0.03441
2462.50000   -0.06104
2463.00000   -0.08498
2463.50000   -0.10595
2464.00000   -0.12370
2464.50000   -0.13811
2465.00000   -0.14912
2465.50000   -0.15673
2466.00000   -0.16105
2466.50000   -0.16221
2467.00000   -0.16038
2467.50000   -0.15577
2468.00000   -0.14857
2468.50000   -0.13899
2469.00000   -0.12722
2469.50000   -0.11340
2470.00000   -0.09765
2470.50000   -0.08007
2471.00000   -0.06068
2471.50000   -0.03951
2472.00000   -0.01654
2472.50000    0.00827
2473.00000    0.03496
2473.50000    0.06356
2474.00000    0.09409
2474.50000    0.12650
2475.00000    0.16075
2475.50000    0.19668
2476.00000    0.23409
2476.50000    0.27269
2477.00000    0.31214
2477.50000    0.35198
2478.00000    0.39170
2478.50000    0.43072
2479.00000    0.46842
2479.50000    0.50414
2480.00000    0.53721
2480.50000    0.56698
2481.00000    0.59281
2481.50000    0.61414
2482.00000    0.63048
2482.50000    0.64145
2483.00000    0.64678
2483.50000    0.64631
2484.00000    0.64004
2484.50000    0.62810
2485.00000    0.61075
2485.50000    0.58838
2486.00000    0.56148
2486.50000    0.53065
2487.00000    0.49653
2487.50000    0.45984
2488.00000    0.42130
2488.50000    0.38162
2489.00000    0.34150
2489.50000    0.30159
2490.00000    0.26245
2490.50000    0.22460
2491.00000    0.18842
2491.50000    0.15426
2492.00000    0.12231
2492.50000    0.09274
2493.00000    0.06560
2493.50000    0.04087
2494.00000    0.01852
2494.50000   -0.00157
2495.00000   -0.01953
2495.50000   -0.03548
2496.00000   -0.04958
2496.50000   -0.06196
2497.00000   -0.07274
2497.50000   -0.08204
2498.00000   -0.08994
2498.50000   -0.09651
2499.00000   -0.10181
2499.50000   -0.10588
2500.00000   -0.10875
2500.50000   -0.11048
2501.00000   -0.11108
2501.50000   -0.11061
2502.00000   -0.10913
2502.50000   -0.10669
2503.00000   -0.10337
2503.50000   -0.09928
2504.00000   -0.09449
2504.50000   -0.08912
2505.00000   -0.08326
2505.50000   -0.07701
2506.00000   -0.07048
2506.50000   -0.06373
2507.00000   -0.05685
2507.50000   -0.04989
2508.00000   -0.04290
2508.50000   -0.03590
2509.00000   -0.02894
2509.50000   -0.02202
2510.00000   -0.01518
2510.50000   -0.00845
2511.00000   -0.00186
2511.50000    0.00452
2512.00000    0.01063
2512.50000    0.01635
2513.00000    0.02156
2513.50000    0.02612
2514.00000    0.02987
2514.50000    0.03263
2515.00000    0.03422
2515.50000    0.03446
2516.00000    0.03319
2516.50000    0.03027
2517.00000    0.02559
2517.50000    0.01910
2518.00000    0.01079
2518.50000    0.00071
2519.00000   -0.01100
2519.50000   -0.02417
2520.00000   -0.03854
2520.50000   -0.05378
2521.00000   -0.06951
2521.50000   -0.08531
2522.00000   -0.10070
2522.50000   -0.11520
2523.00000   -0.12829
2523.50000   -0.13947
2524.00000   -0.14825
2524.50000   -0.15419
2525.00000   -0.15687
2525.50000   -0.15595
2526.00000   -0.15116
2526.50000   -0.14229
2527.00000   -0.12924
2527.50000   -0.11196
2528.00000   -0.09054
2528.50000   -0.06510
2529.00000   -0.03589
2529.50000   -0.00319
2530.00000    0.03263
2530.50000    0.07117
2531.00000    0.11197
2531.50000    0.15459
2532.00000    0.19855
2532.50000    0.24339
2533.00000    0.28869
2533.50000    0.33406
2534.00000    0.37914
2534.50000    0.42365
2535.00000    0.46734
2535.50000    0.51004
2536.00000    0.55160
2536.50000    0.59193
2537.00000    0.63097
2537.50000    0.66865
2538.00000    0.70492
2538.50000    0.73970
2539.00000    0.77286
2539.50000    0.80425
2540.00000    0.83364
2540.50000    0.86072
2541.00000    0.88513
2541.50000    0.90644
2542.00000    0.92417
2542.50000    0.93778
2543.00000    0.94675
2543.50000    0.95052
2544.00000    0.94860
2544.50000    0.94055
2545.00000    0.92603
2545.50000    0.90481
2546.00000    0.87682
2546.50000    0.84213
2547.00000    0.80102
2547.50000    0.75392
2548.00000    0.70145
2548.50000    0.64440
2549.00000    0.58370
2549.50000    0.52040
2550.00000    0.45564
2550.50000    0.39061
2551.00000    0.32650
2551.50000    0.26448
2552.00000    0.20563
2552.50000    0.15094
2553.00000    0.10123
2553.50000    0.05714
2554.00000    0.01915
2554.50000   -0.01250
2555.00000   -0.03778
2555.50000   -0.05683
2556.00000   -0.07002
2556.50000   -0.07787
2557.00000   -0.08102
2557.50000   -0.08024
2558.00000   -0.07636
2558.50000   -0.07022
2559.00000   -0.06266
2559.50000   -0.05446
2560.00000   -0.04632
2560.50000   -0.03882
2561.00000   -0.03242
2561.50000   -0.02744
2562.00000   -0.02403
2562.50000   -0.02224
2563.00000   -0.02194
2563.50000   -0.02294
2564.00000   -0.02491
2564.50000   -0.02750
2565.00000   -0.03029
2565.50000   -0.03290
2566.00000   -0.03491
2566.50000   -0.03599
2567.00000   -0.03582
2567.50000   -0.03419
2568.00000   -0.03092
2568.50000   -0.02591
2569.00000   -0.01914
2569.50000   -0.01061
2570.00000   -0.00037
2570.50000    0.01151
2571.00000    0.02493
2571.50000    0.03984
2572.00000    0.05616
2572.50000    0.07384
2573.00000    0.09288
2573.50000    0.11325
2574.00000    0.13498
2574.50000    0.15805
2575.00000    0.18249
2575.50000    0.20827
2576.00000    0.23534
2576.50000    0.26360
2577.00000    0.29293
2577.50000    0.32313
2578.00000    0.35397
2578.50000    0.38518
2579.00000    0.41645
2579.50000    0.44745
2580.00000    0.47785
2580.50000    0.50730
2581.00000    0.53551
2581.50000    0.56218
2582.00000    0.58707
2582.50000    0.60998
2583.00000    0.63074
2583.50000    0.64923
2584.00000    0.66536
2584.50000    0.67905
2585.00000    0.69023
2585.50000    0.69885
2586.00000    0.70481
2586.50000    0.70803
2587.00000    0.70837
2587.50000    0.70568
2588.00000    0.69978
2588.50000    0.69048
2589.00000    0.67759
2589.50000    0.66093
2590.00000    0.64033
2590.50000    0.61571
2591.00000    0.58703
2591.50000    0.55433
2592.00000    0.51775
2592.50000    0.47755
2593.00000    0.43405
2593.50000    0.38772
2594.00000    0.33908
2594.50000    0.28874
2595.00000    0.23734
2595.50000    0.18556
2596.00000    0.13409
2596.50000    0.08358
2597.00000    0.03462
2597.50000   -0.01226
2598.00000   -0.05661
2598.50000   -0.09812
2599.00000   -0.13656
2599.50000   -0.17181
2600.00000   -0.20387
2600.50000   -0.23282
2601.00000   -0.25879
2601.50000   -0.28200
2602.00000   -0.30265
2602.50000   -0.32099
2603.00000   -0.33721
2603.50000   -0.35148
2604.00000   -0.36389
2604.50000   -0.37450
2605.00000   -0.38326
2605.50000   -0.39008
2606.00000   -0.39478
2606.50000   -0.39718
2607.00000   -0.39702
2607.50000   -0.39406
2608.00000   -0.38807
2608.50000   -0.37888
2609.00000   -0.36634
2609.50000   -0.35041
2610.00000   -0.33115
2610.50000   -0.30869
2611.00000   -0.28329
2611.50000   -0.25530
2612.00000   -0.22518
2612.50000   -0.19344
2613.00000   -0.16066
2613.50000   -0.12746
2614.00000   -0.09447
2614.50000   -0.06229
2615.00000   -0.03151
2615.50000   -0.00264
2616.00000    0.02388
2616.50000    0.04769
2617.00000    0.06853
2617.50000    0.08626
2618.00000    0.10082
2618.50000    0.11225
2619.00000    0.12067
2619.50000    0.12630
2620.00000    0.12938
2620.50000    0.13022
2621.00000    0.12917
2621.50000    0.12657
2622.00000    0.12279
2622.50000    0.11815
2623.00000    0.11298
2623.50000    0.10757
2624.00000    0.10218
2624.50000    0.09701
2625.00000    0.09223
2625.50000    0.08795
2626.00000    0.08426
2626.50000    0.08117
2627.00000    0.07867
2627.50000    0.07672
2628.00000    0.07524
2628.50000    0.07413
2629.00000    0.07327
2629.50000    0.07255
2630.00000    0.07185
2630.50000    0.07106
2631.00000    0.07011
2631.50000    0.06894
2632.00000    0.06754
2632.50000    0.06593
2633.00000    0.06419
2633.50000    0.06242
2634.00000    0.06078
2634.50000    0.05945
2635.00000    0.05866
2635.50000    0.05864
2636.00000    0.05966
2636.50000    0.06198
2637.00000    0.06584
2637.50000    0.07148
2638.00000    0.07913
2638.50000    0.08897
2639.00000    0.10116
2639.50000    0.11582
2640.00000    0.13303
2640.50000    0.15284
2641.00000    0.17525
2641.50000    0.20024
2642.00000    0.22773
2642.50000    0.25765
2643.00000    0.28986
2643.50000    0.32421
2644.00000    0.36053
2644.50000    0.39861
2645.00000    0.43826
2645.50000    0.47923
2646.00000    0.52131
2646.50000    0.56427
2647.00000    0.60789
2647.50000    0.65199
2648.00000    0.69642
2648.50000    0.74109
2649.00000    0.78595
2649.50000    0.83105
2650.00000    0.87649
2650.50000    0.92248
2651.00000    0.96929
2651.50000    1.01728
2652.00000    1.06688
2652.50000    1.11858
2653.00000    1.17290
2653.50000    1.23039
2654.00000    1.29158
2654.50000    1.35700
2655.00000    1.42710
2655.50000    1.50230
2656.00000    1.58290
2656.50000    1.66915
2657.00000    1.76117
2657.50000    1.85902
2658.00000    1.96264
2658.50000    2.07193
2659.00000    2.18671
2659.50000    2.30677
2660.00000    2.43189
2660.50000    2.56184
2661.00000    2.69643
2661.50000    2.83548
2662.00000    2.97887
2662.50000    3.12656
2663.00000    3.27851
2663.50000    3.43478
2664.00000    3.59545
2664.50000    3.76061
2665.00000    3.93040
2665.50000    4.10494
2666.00000    4.28431
2666.50000    4.46860
2667.00000    4.65780
2667.50000    4.85186
2668.00000    5.05068
2668.50000    5.25404
2669.00000    5.46167
2669.50000    5.67321
2670.00000    5.88822
2670.50000    6.10617
2671.00000    6.32648
2671.50000    6.54848
2672.00000    6.77144
2672.50000    6.99458
2673.00000    7.21703
2673.50000    7.43789
2674.00000    7.65621
2674.50000    7.87098
2675.00000    8.08116
2675.50000    8.28567
2676.00000    8.48341
2676.50000    8.67327
2677.00000    8.85415
2677.50000    9.02496
2678.00000    9.18464
2678.50000    9.33221
2679.00000    9.46674
2679.50000    9.58740
2680.00000    9.69348
2680.50000    9.78437
2681.00000    9.85961
2681.50000    9.91888
2682.00000    9.96203
2682.50000    9.98902
2683.00000   10.00000
2683.50000    9.99524
2684.00000    9.97516
2684.50000    9.94028
2685.00000    9.89128
2685.50000    9.82890
2686.00000    9.75397
2686.50000    9.66740
2687.00000    9.57016
2687.50000    9.46322
2688.00000    9.34761
2688.50000    9.22432
2689.00000    9.09436
2689.50000    8.95869
2690.00000    8.81823
2690.50000    8.67385
2691.00000    8.52635
2691.50000    8.37643
2692.00000    8.22474
2692.50000    8.07180
2693.00000    7.91806
2693.50000    7.76386
2694.00000    7.60946
2694.50000    7.45500
2695.00000    7.30058
2695.50000    7.14619
2696.00000    6.99176
2696.50000    6.83719
2697.00000    6.68232
2697.50000    6.52699
2698.00000    6.37100
2698.50000    6.21418
2699.00000    6.05636
2699.50000    5.89742
2700.00000    5.73727
2700.50000    5.57585
2701.00000    5.41320
2701.50000    5.24937
2702.00000    5.08454
2702.50000    4.91890
2703.00000    4.75275
2703.50000    4.58645
2704.00000    4.42044
2704.50000    4.25520
2705.00000    4.09129
2705.50000    3.92930
2706.00000    3.76989
2706.50000    3.61373
2707.00000    3.46148
2707.50000    3.31385
2708.00000    3.17149
2708.50000    3.03504
2709.00000    2.90506
2709.50000    2.78205
2710.00000    2.66643
2710.50000    2.55849
2711.00000    2.45842
2711.50000    2.36626
2712.00000    2.28192
2712.50000    2.20515
2713.00000    2.13558
2713.50000    2.07268
2714.00000    2.01578
2714.50000    1.96412
2715.00000    1.91681
2715.50000    1.87291
2716.00000    1.83141
2716.50000    1.79131
2717.00000    1.75160
2717.50000    1.71133
2718.00000    1.66962
2718.50000    1.62570
2719.00000    1.57895
2719.50000    1.52888
2720.00000    1.47521
2720.50000    1.41781
2721.00000    1.35676
2721.50000    1.29232
2722.00000    1.22489
2722.50000    1.15506
2723.00000    1.08350
2723.50000    1.01099
2724.00000    0.93835
2724.50000    0.86640
2725.00000    0.79596
2725.50000    0.72777
2726.00000    0.66249
2726.50000    0.60067
2727.00000    0.54271
2727.50000    0.48889
2728.00000    0.43934
2728.50000    0.39407
2729.00000    0.35298
2729.50000    0.31587
2730.00000    0.28250
2730.50000    0.25257
2731.00000    0.22580
2731.50000    0.20191
2732.00000    0.18070
2732.50000    0.16198
2733.00000    0.14567
2733.50000    0.13172
2734.00000    0.12016
2734.50000    0.11104
2735.00000    0.10444
2735.50000    0.10042
2736.00000    0.09901
2736.50000    0.10017
2737.00000    0.10378
2737.50000    0.10962
2738.00000    0.11734
2738.50000    0.12648
2739.00000    0.13649
2739.50000    0.14671
2740.00000    0.15641
2740.50000    0.16483
2741.00000    0.17120
2741.50000    0.17477
2742.00000    0.17486
2742.50000    0.17088
2743.00000    0.16237
2743.50000    0.14900
2744.00000    0.13062
2744.50000    0.10726
2745.00000    0.07908
2745.50000    0.04645
2746.00000    0.00987
2746.50000   -0.03003
2747.00000   -0.07250
2747.50000   -0.11671
2748.00000   -0.16175
2748.50000   -0.20671
2749.00000   -0.25065
2749.50000   -0.29266
2750.00000   -0.33188
2750.50000   -0.36752
2751.00000   -0.39888
2751.50000   -0.42534
2752.00000   -0.44642
2752.50000   -0.46177
2753.00000   -0.47118
2753.50000   -0.47456
2754.00000   -0.47198
2754.50000   -0.46364
2755.00000   -0.44987
2755.50000   -0.43113
2756.00000   -0.40796
2756.50000   -0.38100
2757.00000   -0.35094
2757.50000   -0.31850
2758.00000   -0.28443
2758.50000   -0.24943
2759.00000   -0.21417
2759.50000   -0.17924
2760.00000   -0.14516
2760.50000   -0.11231
2761.00000   -0.08099
2761.50000   -0.05136
2762.00000   -0.02347
2762.50000    0.00274
2763.00000    0.02742
2763.50000    0.05082
2764.00000    0.07322
2764.50000    0.09496
2765.00000    0.11638
2765.50000    0.13783
2766.00000    0.15964
2766.50000    0.18207
2767.00000    0.20538
2767.50000    0.22974
2768.00000    0.25526
2768.50000    0.28198
2769.00000    0.30989
2769.50000    0.33890
2770.00000    0.36886
2770.50000    0.39956
2771.00000    0.43074
2771.50000    0.46209
2772.00000    0.49323
2772.50000    0.52376
2773.00000    0.55324
2773.50000    0.58117
2774.00000    0.60706
2774.50000    0.63036
2775.00000    0.65053
2775.50000    0.66705
2776.00000    0.67940
2776.50000    0.68710
2777.00000    0.68973
2777.50000    0.68693
2778.00000    0.67845
2778.50000    0.66412
2779.00000    0.64392
2779.50000    0.61792
2780.00000    0.58634
2780.50000    0.54954
2781.00000    0.50797
2781.50000    0.46221
2782.00000    0.41295
2782.50000    0.36092
2783.00000    0.30692
2783.50000    0.25177
2784.00000    0.19630
2784.50000    0.14131
2785.00000    0.08757
2785.50000    0.03579
2786.00000   -0.01339
2786.50000   -0.05943
2787.00000   -0.10184
2787.50000   -0.14024
2788.00000   -0.17433
2788.50000   -0.20389
2789.00000   -0.22878
2789.50000   -0.24892
2790.00000   -0.26431
2790.50000   -0.27498
2791.00000   -0.28105
2791.50000   -0.28266
2792.00000   -0.28000
2792.50000   -0.27329
2793.00000   -0.26282
2793.50000   -0.24888
2794.00000   -0.23179
2794.50000   -0.21193
2795.00000   -0.18966
2795.50000   -0.16538
2796.00000   -0.13949
2796.50000   -0.11240
2797.00000   -0.08451
2797.50000   -0.05621
2798.00000   -0.02786
2798.50000    0.00018
2799.00000    0.02760
2799.50000    0.05412
2800.00000    0.07947
2800.50000    0.10343
2801.00000    0.12584
2801.50000    0.14652
2802.00000    0.16536
2802.50000    0.18225
2803.00000    0.19712
2803.50000    0.20990
2804.00000    0.22057
2804.50000    0.22908
2805.00000    0.23541
2805.50000    0.23957
2806.00000    0.24154
2806.50000    0.24134
2807.00000    0.23896
2807.50000    0.23441
2808.00000    0.22772
2808.50000    0.21888
2809.00000    0.20794
2809.50000    0.19490
2810.00000    0.17981
2810.50000    0.16272
2811.00000    0.14368
2811.50000    0.12280
2812.00000    0.10020
2812.50000    0.07604
2813.00000    0.05055
2813.50000    0.02401
2814.00000   -0.00325
2814.50000   -0.03082
2815.00000   -0.05823
2815.50000   -0.08493
2816.00000   -0.11033
2816.50000   -0.13379
2817.00000   -0.15463
2817.50000   -0.17218
2818.00000   -0.18576
2818.50000   -0.19474
2819.00000   -0.19854
2819.50000   -0.19667
2820.00000   -0.18874
2820.50000   -0.17448
2821.00000   -0.15376
2821.50000   -0.12661
2822.00000   -0.09317
2822.50000   -0.05378
2823.00000   -0.00888
2823.50000    0.04095
2824.00000    0.09502
2824.50000    0.15254
2825.00000    0.21268
2825.50000    0.27453
2826.00000    0.33717
2826.50000    0.39969
2827.00000    0.46117
2827.50000    0.52073
2828.00000    0.57756
2828.50000    0.63086
2829.00000    0.67995
2829.50000    0.72417
2830.00000    0.76298
2830.50000    0.79587
2831.00000    0.82246
2831.50000    0.84242
2832.00000    0.85551
2832.50000    0.86160
2833.00000    0.86064
2833.50000    0.85265
2834.00000    0.83777
2834.50000    0.81624
2835.00000    0.78838
2835.50000    0.75461
2836.00000    0.71545
2836.50000    0.67151
2837.00000    0.62347
2837.50000    0.57209
2838.00000    0.51819
2838.50000    0.46265
2839.00000    0.40635
2839.50000    0.35019
2840.00000    0.29508
2840.50000    0.24186
2841.00000    0.19134
2841.50000    0.14424
2842.00000    0.10118
2842.50000    0.06267
2843.00000    0.02908
2843.50000    0.00065
2844.00000   -0.02254
2844.50000   -0.04055
2845.00000   -0.05361
2845.50000   -0.06206
2846.00000   -0.06636
2846.50000   -0.06706
2847.00000   -0.06479
2847.50000   -0.06024
2848.00000   -0.05407
2848.50000   -0.04696
2849.00000   -0.03953
2849.50000   -0.03234
2850.00000   -0.02586
2850.50000   -0.02047
2851.00000   -0.01642
2851.50000   -0.01390
2852.00000   -0.01296
2852.50000   -0.01360
2853.00000   -0.01571
2853.50000   -0.01917
2854.00000   -0.02378
2854.50000   -0.02936
2855.00000   -0.03572
2855.50000   -0.04267
2856.00000   -0.05006
2856.50000   -0.05776
2857.00000   -0.06566
2857.50000   -0.07368
2858.00000   -0.08173
2858.50000   -0.08974
2859.00000   -0.09760
2859.50000   -0.10521
2860.00000   -0.11241
2860.50000   -0.11900
2861.00000   -0.12474
2861.50000   -0.12936
2862.00000   -0.13257
2862.50000   -0.13402
2863.00000   -0.13342
2863.50000   -0.13047
2864.00000   -0.12491
2864.50000   -0.11656
2865.00000   -0.10532
2865.50000   -0.09118
2866.00000   -0.07426
2866.50000   -0.05477
2867.00000   -0.03304
2867.50000   -0.00950
2868.00000    0.01535
2868.50000    0.04091
2869.00000    0.06658
2869.50000    0.09170
2870.00000    0.11565
2870.50000    0.13781
2871.00000    0.15765
2871.50000    0.17467
2872.00000    0.18851
2872.50000    0.19886
2873.00000    0.20556
2873.50000    0.20851
2874.00000    0.20776
2874.50000    0.20343
2875.00000    0.19574
2875.50000    0.18498
2876.00000    0.17151
2876.50000    0.15574
2877.00000    0.13811
2877.50000    0.11907
2878.00000    0.09910
2878.50000    0.07865
2879.00000    0.05816
2879.50000    0.03802
2880.00000    0.01862
2880.50000    0.00027
2881.00000   -0.01675
2881.50000   -0.03224
2882.00000   -0.04601
2882.50000   -0.05796
2883.00000   -0.06802
2883.50000   -0.07618
2884.00000   -0.08245
2884.50000   -0.08690
2885.00000   -0.08960
2885.50000   -0.09065
2886.00000   -0.09018
2886.50000   -0.08832
2887.00000   -0.08519
2887.50000   -0.08094
2888.00000   -0.07573
2888.50000   -0.06970
2889.00000   -0.06301
2889.50000   -0.05584
2890.00000   -0.04835
2890.50000   -0.04074
2891.00000   -0.03318
2891.50000   -0.02587
2892.00000   -0.01900
2892.50000   -0.01275
2893.00000   -0.00729
2893.50000   -0.00274
2894.00000    0.00077
2894.50000    0.00319
2895.00000    0.00449
2895.50000    0.00469
2896.00000    0.00387
2896.50000    0.00213
2897.00000   -0.00038
2897.50000   -0.00350
2898.00000   -0.00707
2898.50000   -0.01093
2899.00000   -0.01494
2899.50000   -0.01899
