1200.50000   -0.16003
1201.00000   -0.12374
1201.50000   -0.08749
1202.00000   -0.05134
1202.50000   -0.01535
1203.00000    0.02039
1203.50000    0.05579
1204.00000    0.09073
1204.50000    0.12509
1205.00000    0.15875
1205.50000    0.19155
1206.00000    0.22338
1206.50000    0.25409
1207.00000    0.28359
1207.50000    0.31176
1208.00000    0.33853
1208.50000    0.36384
1209.00000    0.38768
1209.50000    0.41005
1210.00000    0.43098
1210.50000    0.45054
1211.00000    0.46884
1211.50000    0.48598
1212.00000    0.50211
1212.50000    0.51736
1213.00000    0.53189
1213.50000    0.54584
1214.00000    0.55932
1214.50000    0.57244
1215.00000    0.58526
1215.50000    0.59782
1216.00000    0.61010
1216.50000    0.62205
1217.00000    0.63358
1217.50000    0.64454
1218.00000    0.65476
1218.50000    0.66404
1219.00000    0.67212
1219.50000    0.67876
1220.00000    0.68369
1220.50000    0.68663
1221.00000    0.68733
1221.50000    0.68555
1222.00000    0.68105
1222.50000    0.67365
1223.00000    0.66317
1223.50000    0.64950
1224.00000    0.63255
1224.50000    0.61227
1225.00000    0.58865
1225.50000    0.56173
1226.00000    0.53158
1226.50000    0.49831
1227.00000    0.46206
1227.50000    0.42302
1228.00000    0.38139
1228.50000    0.33741
1229.00000    0.29135
1229.50000    0.24352
1230.00000    0.19424
1230.50000    0.14387
1231.00000    0.09278
1231.50000    0.04139
1232.00000   -0.00987
1232.50000   -0.06056
1233.00000   -0.11020
1233.50000   -0.15832
1234.00000   -0.20445
1234.50000   -0.24810
1235.00000   -0.28881
1235.50000   -0.32615
1236.00000   -0.35970
1236.50000   -0.38911
1237.00000   -0.41406
1237.50000   -0.43432
1238.00000   -0.44971
1238.50000   -0.46012
1239.00000   -0.46553
1239.50000   -0.46601
1240.00000   -0.46169
1240.50000   -0.45278
1241.00000   -0.43959
1241.50000   -0.42246
1242.00000   -0.40180
1242.50000   -0.37807
1243.00000   -0.35175
1243.50000   -0.32335
1244.00000   -0.29336
1244.50000   -0.26229
1245.00000   -0.23061
1245.50000   -0.19877
1246.00000   -0.16718
1246.50000   -0.13619
1247.00000   -0.10610
1247.50000   -0.07716
1248.00000   -0.04956
1248.50000   -0.02346
1249.00000    0.00107
1249.50000    0.02397
1250.00000    0.04523
1250.50000    0.06488
1251.00000    0.08296
1251.50000    0.09954
1252.00000    0.11468
1252.50000    0.12845
1253.00000    0.14092
1253.50000    0.15216
1254.00000    0.16220
1254.50000    0.17111
1255.00000    0.17890
1255.50000    0.18560
1256.00000    0.19122
1256.50000    0.19577
1257.00000    0.19927
1257.50000    0.20171
1258.00000    0.20313
1258.50000    0.20355
1259.00000    0.20299
1259.50000    0.20152
1260.00000    0.19917
1260.50000    0.19603
1261.00000    0.19216
1261.50000    0.18766
1262.00000    0.18259
1262.50000    0.17704
1263.00000    0.17110
1263.50000    0.16483
1264.00000    0.15829
1264.50000    0.15153
1265.00000    0.14458
1265.50000    0.13748
1266.00000    0.13023
1266.50000    0.12283
1267.00000    0.11528
1267.50000    0.10758
1268.00000    0.09973
1268.50000    0.09172
1269.00000    0.08356
1269.50000    0.07530
1270.00000    0.06696
1270.50000    0.05863
1271.00000    0.05037
1271.50000    0.04229
1272.00000    0.03451
1272.50000    0.02715
1273.00000    0.02035
1273.50000    0.01424
1274.00000    0.00895
1274.50000    0.00459
1275.00000    0.00125
1275.50000   -0.00099
1276.00000   -0.00210
1276.50000   -0.00209
1277.00000   -0.00099
1277.50000    0.00111
1278.00000    0.00409
1278.50000    0.00780
1279.00000    0.01205
1279.50000    0.01664
1280.00000    0.02133
1280.50000    0.02590
1281.00000    0.03012
1281.50000    0.03379
1282.00000    0.03672
1282.50000    0.03874
1283.00000    0.03974
1283.50000    0.03964
1284.00000    0.03842
1284.50000    0.03610
1285.00000    0.03275
1285.50000    0.02849
1286.00000    0.02348
1286.50000    0.01793
1287.00000    0.01206
1287.50000    0.00612
1288.00000    0.00037
1288.50000   -0.00492
1289.00000   -0.00951
1289.50000   -0.01316
1290.00000   -0.01565
1290.50000   -0.01682
1291.00000   -0.01653
1291.50000   -0.01467
1292.00000   -0.01121
1292.50000   -0.00614
1293.00000    0.00047
1293.50000    0.00854
1294.00000    0.01789
1294.50000    0.02834
1295.00000    0.03964
1295.50000    0.05152
1296.00000    0.06368
1296.50000    0.07578
1297.00000    0.08749
1297.50000    0.09844
1298.00000    0.10828
1298.50000    0.11667
1299.00000    0.12327
1299.50000    0.12779
1300.00000    0.12996
1300.50000    0.12953
1301.00000    0.12634
1301.50000    0.12026
1302.00000    0.11122
1302.50000    0.09922
1303.00000    0.08434
1303.50000    0.06671
1304.00000    0.04654
1304.50000    0.02410
1305.00000   -0.00028
1305.50000   -0.02622
1306.00000   -0.05329
1306.50000   -0.08104
1307.00000   -0.10898
1307.50000   -0.13664
1308.00000   -0.16352
1308.50000   -0.18915
1309.00000   -0.21311
1309.50000   -0.23497
1310.00000   -0.25440
1310.50000   -0.27109
1311.00000   -0.28482
1311.50000   -0.29544
1312.00000   -0.30284
1312.50000   -0.30701
1313.00000   -0.30800
1313.50000   -0.30592
1314.00000   -0.30094
1314.50000   -0.29326
1315.00000   -0.28312
1315.50000   -0.27081
1316.00000   -0.25660
1316.50000   -0.24079
1317.00000   -0.22366
1317.50000   -0.20549
1318.00000   -0.18653
1318.50000   -0.16701
1319.00000   -0.14712
1319.50000   -0.12701
1320.00000   -0.10681
1320.50000   -0.08659
1321.00000   -0.06638
1321.50000   -0.04619
1322.00000   -0.02598
1322.50000   -0.00569
1323.00000    0.01479
1323.50000    0.03558
1324.00000    0.05682
1324.50000    0.07870
1325.00000    0.10138
1325.50000    0.12508
1326.00000    0.15001
1326.50000    0.17638
1327.00000    0.20442
1327.50000    0.23436
1328.00000    0.26643
1328.50000    0.30085
1329.00000    0.33784
1329.50000    0.37758
1330.00000    0.42028
1330.50000    0.46607
1331.00000    0.51509
1331.50000    0.56743
1332.00000    0.62312
1332.50000    0.68217
1333.00000    0.74451
1333.50000    0.81002
1334.00000    0.87852
1334.50000    0.94974
1335.00000    1.02337
1335.50000    1.09899
1336.00000    1.17615
1336.50000    1.25430
1337.00000    1.33287
1337.50000    1.41120
1338.00000    1.48861
1338.50000    1.56439
1339.00000    1.63781
1339.50000    1.70814
1340.00000    1.77467
1340.50000    1.83672
1341.00000    1.89366
1341.50000    1.94490
1342.00000    1.98996
1342.50000    2.02842
1343.00000    2.05996
1343.50000    2.08435
1344.00000    2.10150
1344.50000    2.11137
1345.00000    2.11408
1345.50000    2.10981
1346.00000    2.09885
1346.50000    2.08155
1347.00000    2.05835
1347.50000    2.02974
1348.00000    1.99622
1348.50000    1.95835
1349.00000    1.91666
1349.50000    1.87168
1350.00000    1.82393
1350.50000    1.77386
1351.00000    1.72191
1351.50000    1.66845
1352.00000    1.61379
1352.50000    1.55822
1353.00000    1.50193
1353.50000    1.44510
1354.00000    1.38785
1354.50000    1.33027
1355.00000    1.27245
1355.50000    1.21443
1356.00000    1.15629
1356.50000    1.09808
1357.00000    1.03989
1357.50000    0.98184
1358.00000    0.92405
1358.50000    0.86669
1359.00000    0.80995
1359.50000    0.75405
1360.00000    0.69922
1360.50000    0.64572
1361.00000    0.59381
1361.50000    0.54374
1362.00000    0.49577
1362.50000    0.45013
1363.00000    0.40702
1363.50000    0.36663
1364.00000    0.32908
1364.50000    0.29447
1365.00000    0.26286
1365.50000    0.23426
1366.00000    0.20862
1366.50000    0.18590
1367.00000    0.16597
1367.50000    0.14873
1368.00000    0.13401
1368.50000    0.12165
1369.00000    0.11149
1369.50000    0.10332
1370.00000    0.09698
1370.50000    0.09228
1371.00000    0.08902
1371.50000    0.08701
1372.00000    0.08608
1372.50000    0.08604
1373.00000    0.08668
1373.50000    0.08782
1374.00000    0.08924
1374.50000    0.09076
1375.00000    0.09214
1375.50000    0.09319
1376.00000    0.09369
1376.50000    0.09344
1377.00000    0.09225
1377.50000    0.08996
1378.00000    0.08643
1378.50000    0.08156
1379.00000    0.07529
1379.50000    0.06758
1380.00000    0.05849
1380.50000    0.04807
1381.00000    0.03647
1381.50000    0.02385
1382.00000    0.01043
1382.50000   -0.00355
1383.00000   -0.01784
1383.50000   -0.03216
1384.00000   -0.04623
1384.50000   -0.05982
1385.00000   -0.07269
1385.50000   -0.08465
1386.00000   -0.09558
1386.50000   -0.10538
1387.00000   -0.11402
1387.50000   -0.12152
1388.00000   -0.12795
1388.50000   -0.13341
1389.00000   -0.13806
1389.50000   -0.14206
1390.00000   -0.14559
1390.50000   -0.14882
1391.00000   -0.15191
1391.50000   -0.15497
1392.00000   -0.15810
1392.50000   -0.16132
1393.00000   -0.16461
1393.50000   -0.16790
1394.00000   -0.17106
1394.50000   -0.17389
1395.00000   -0.17618
1395.50000   -0.17767
1396.00000   -0.17810
1396.50000   -0.17722
1397.00000   -0.17475
1397.50000   -0.17049
1398.00000   -0.16425
1398.50000   -0.15591
1399.00000   -0.14539
1399.50000   -0.13270
1400.00000   -0.11790
1400.50000   -0.10114
1401.00000   -0.08260
1401.50000   -0.06256
1402.00000   -0.04130
1402.50000   -0.01918
1403.00000    0.00345
1403.50000    0.02621
1404.00000    0.04873
1404.50000    0.07066
1405.00000    0.09166
1405.50000    0.11143
1406.00000    0.12970
1406.50000    0.14624
1407.00000    0.16088
1407.50000    0.17345
1408.00000    0.18386
1408.50000    0.19203
1409.00000    0.19792
1409.50000    0.20152
1410.00000    0.20284
1410.50000    0.20191
1411.00000    0.19879
1411.50000    0.19355
1412.00000    0.18627
1412.50000    0.17708
1413.00000    0.16609
1413.50000    0.15347
1414.00000    0.13940
1414.50000    0.12407
1415.00000    0.10773
1415.50000    0.09063
1416.00000    0.07306
1416.50000    0.05530
1417.00000    0.03768
1417.50000    0.02051
1418.00000    0.00411
1418.50000   -0.01123
1419.00000   -0.02523
1419.50000   -0.03764
1420.00000   -0.04826
1420.50000   -0.05693
1421.00000   -0.06358
1421.50000   -0.06815
1422.00000   -0.07069
1422.50000   -0.07129
1423.00000   -0.07010
1423.50000   -0.06732
1424.00000   -0.06321
1424.50000   -0.05804
1425.00000   -0.05211
1425.50000   -0.04574
1426.00000   -0.03923
1426.50000   -0.03289
1427.00000   -0.02699
1427.50000   -0.02178
1428.00000   -0.01747
1428.50000   -0.01422
1429.00000   -0.01218
1429.50000   -0.01143
1430.00000   -0.01202
1430.50000   -0.01396
1431.00000   -0.01723
1431.50000   -0.02181
1432.00000   -0.02762
1432.50000   -0.03460
1433.00000   -0.04267
1433.50000   -0.05172
1434.00000   -0.06168
1434.50000   -0.07243
1435.00000   -0.08386
1435.50000   -0.09585
1436.00000   -0.10828
1436.50000   -0.12099
1437.00000   -0.13381
1437.50000   -0.14655
1438.00000   -0.15901
1438.50000   -0.17093
1439.00000   -0.18208
1439.50000   -0.19217
1440.00000   -0.20092
1440.50000   -0.20805
1441.00000   -0.21328
1441.50000   -0.21635
1442.00000   -0.21704
1442.50000   -0.21515
1443.00000   -0.21056
1443.50000   -0.20318
1444.00000   -0.19302
1444.50000   -0.18013
1445.00000   -0.16466
1445.50000   -0.14680
1446.00000   -0.12681
1446.50000   -0.10504
1447.00000   -0.08184
1447.50000   -0.05761
1448.00000   -0.03280
1448.50000   -0.00781
1449.00000    0.01692
1449.50000    0.04100
1450.00000    0.06406
1450.50000    0.08578
1451.00000    0.10591
1451.50000    0.12422
1452.00000    0.14058
1452.50000    0.15488
1453.00000    0.16707
1453.50000    0.17717
1454.00000    0.18521
1454.50000    0.19125
1455.00000    0.19538
1455.50000    0.19770
1456.00000    0.19831
1456.50000    0.19731
1457.00000    0.19479
1457.50000    0.19084
1458.00000    0.18554
1458.50000    0.17896
1459.00000    0.17116
1459.50000    0.16222
1460.00000    0.15222
1460.50000    0.14126
1461.00000    0.12943
1461.50000    0.11688
1462.00000    0.10377
1462.50000    0.09026
1463.00000    0.07658
1463.50000    0.06295
1464.00000    0.04959
1464.50000    0.03676
1465.00000    0.02471
1465.50000    0.01365
1466.00000    0.00380
1466.50000   -0.00467
1467.00000   -0.01161
1467.50000   -0.01693
1468.00000   -0.02057
1468.50000   -0.02256
1469.00000   -0.02294
1469.50000   -0.02184
1470.00000   -0.01941
1470.50000   -0.01586
1471.00000   -0.01143
1471.50000   -0.00637
1472.00000   -0.00097
1472.50000    0.00448
1473.00000    0.00972
1473.50000    0.01446
1474.00000    0.01848
1474.50000    0.02154
1475.00000    0.02348
1475.50000    0.02413
1476.00000    0.02341
1476.50000    0.02124
1477.00000    0.01760
1477.50000    0.01252
1478.00000    0.00607
1478.50000   -0.00167
1479.00000   -0.01053
1479.50000   -0.02036
1480.00000   -0.03095
1480.50000   -0.04205
1481.00000   -0.05341
1481.50000   -0.06476
1482.00000   -0.07580
1482.50000   -0.08623
1483.00000   -0.09575
1483.50000   -0.10406
1484.00000   -0.11090
1484.50000   -0.11600
1485.00000   -0.11915
1485.50000   -0.12016
1486.00000   -0.11892
1486.50000   -0.11534
1487.00000   -0.10942
1487.50000   -0.10122
1488.00000   -0.09086
1488.50000   -0.07854
1489.00000   -0.06450
1489.50000   -0.04907
1490.00000   -0.03260
1490.50000   -0.01549
1491.00000    0.00185
1491.50000    0.01897
1492.00000    0.03546
1492.50000    0.05092
1493.00000    0.06498
1493.50000    0.07733
1494.00000    0.08770
1494.50000    0.09591
1495.00000    0.10183
1495.50000    0.10541
1496.00000    0.10668
1496.50000    0.10571
1497.00000    0.10266
1497.50000    0.09773
1498.00000    0.09114
1498.50000    0.08316
1499.00000    0.07407
1499.50000    0.06415
1500.00000    0.05367
1500.50000    0.04287
1501.00000    0.03198
1501.50000    0.02119
1502.00000    0.01066
1502.50000    0.00051
1503.00000   -0.00918
1503.50000   -0.01837
1504.00000   -0.02702
1504.50000   -0.03514
1505.00000   -0.04274
1505.50000   -0.04985
1506.00000   -0.05649
1506.50000   -0.06269
1507.00000   -0.06846
1507.50000   -0.07381
1508.00000   -0.07875
1508.50000   -0.08325
1509.00000   -0.08730
1509.50000   -0.09085
1510.00000   -0.09387
1510.50000   -0.09631
1511.00000   -0.09813
1511.50000   -0.09927
1512.00000   -0.09972
1512.50000   -0.09943
1513.00000   -0.09841
1513.50000   -0.09665
1514.00000   -0.09417
1514.50000   -0.09101
1515.00000   -0.08722
1515.50000   -0.08287
1516.00000   -0.07802
1516.50000   -0.07278
1517.00000   -0.06723
1517.50000   -0.06149
1518.00000   -0.05565
1518.50000   -0.04982
1519.00000   -0.04410
1519.50000   -0.03859
1520.00000   -0.03337
1520.50000   -0.02852
1521.00000   -0.02409
1521.50000   -0.02011
1522.00000   -0.01663
1522.50000   -0.01362
1523.00000   -0.01108
1523.50000   -0.00895
1524.00000   -0.00718
1524.50000   -0.00568
1525.00000   -0.00434
1525.50000   -0.00306
1526.00000   -0.00171
1526.50000   -0.00016
1527.00000    0.00172
1527.50000    0.00406
1528.00000    0.00696
1528.50000    0.01052
1529.00000    0.01481
1529.50000    0.01989
1530.00000    0.02575
1530.50000    0.03239
1531.00000    0.03976
1531.50000    0.04775
1532.00000    0.05625
1532.50000    0.06510
1533.00000    0.07414
1533.50000    0.08316
1534.00000    0.09196
1534.50000    0.10034
1535.00000    0.10809
1535.50000    0.11503
1536.00000    0.12099
1536.50000    0.12584
1537.00000    0.12949
1537.50000    0.13187
1538.00000    0.13296
1538.50000    0.13278
1539.00000    0.13138
1539.50000    0.12885
1540.00000    0.12531
1540.50000    0.12089
1541.00000    0.11575
1541.50000    0.11002
1542.00000    0.10387
1542.50000    0.09742
1543.00000    0.09079
1543.50000    0.08406
1544.00000    0.07728
1544.50000    0.07048
1545.00000    0.06363
1545.50000    0.05671
1546.00000    0.04963
1546.50000    0.04231
1547.00000    0.03463
1547.50000    0.02650
1548.00000    0.01780
1548.50000    0.00844
1549.00000   -0.00164
1549.50000   -0.01251
1550.00000   -0.02416
1550.50000   -0.03657
1551.00000   -0.04968
1551.50000   -0.06339
1552.00000   -0.07757
1552.50000   -0.09202
1553.00000   -0.10657
1553.50000   -0.12098
1554.00000   -0.13502
1554.50000   -0.14845
1555.00000   -0.16103
1555.50000   -0.17253
1556.00000   -0.18272
1556.50000   -0.19141
1557.00000   -0.19842
1557.50000   -0.20358
1558.00000   -0.20675
1558.50000   -0.20781
1559.00000   -0.20666
1559.50000   -0.20320
1560.00000   -0.19734
1560.50000   -0.18900
1561.00000   -0.17809
1561.50000   -0.16454
1562.00000   -0.14825
1562.50000   -0.12912
1563.00000   -0.10706
1563.50000   -0.08197
1564.00000   -0.05374
1564.50000   -0.02228
1565.00000    0.01251
1565.50000    0.05069
1566.00000    0.09233
1566.50000    0.13746
1567.00000    0.18610
1567.50000    0.23822
1568.00000    0.29379
1568.50000    0.35274
1569.00000    0.41499
1569.50000    0.48044
1570.00000    0.54896
1570.50000    0.62044
1571.00000    0.69476
1571.50000    0.77179
1572.00000    0.85144
1572.50000    0.93361
1573.00000    1.01822
1573.50000    1.10524
1574.00000    1.19463
1574.50000    1.28638
1575.00000    1.38051
1575.50000    1.47704
1576.00000    1.57600
1576.50000    1.67742
1577.00000    1.78135
1577.50000    1.88778
1578.00000    1.99673
1578.50000    2.10814
1579.00000    2.22196
1579.50000    2.33805
1580.00000    2.45625
1580.50000    2.57634
1581.00000    2.69802
1581.50000    2.82093
1582.00000    2.94465
1582.50000    3.06867
1583.00000    3.19243
1583.50000    3.31526
1584.00000    3.43646
1584.50000    3.55522
1585.00000    3.67068
1585.50000    3.78193
1586.00000    3.88798
1586.50000    3.98784
1587.00000    4.08045
1587.50000    4.16475
1588.00000    4.23968
1588.50000    4.30422
1589.00000    4.35737
1589.50000    4.39820
1590.00000    4.42588
1590.50000    4.43968
1591.00000    4.43900
1591.50000    4.42340
1592.00000    4.39260
1592.50000    4.34651
1593.00000    4.28524
1593.50000    4.20909
1594.00000    4.11855
1594.50000    4.01434
1595.00000    3.89734
1595.50000    3.76861
1596.00000    3.62938
1596.50000    3.48098
1597.00000    3.32488
1597.50000    3.16260
1598.00000    2.99574
1598.50000    2.82588
1599.00000    2.65460
1599.50000    2.48342
1600.00000    2.31380
1600.50000    2.14707
1601.00000    1.98446
1601.50000    1.82704
1602.00000    1.67574
1602.50000    1.53132
1603.00000    1.39438
1603.50000    1.26535
1604.00000    1.14451
1604.50000    1.03201
1605.00000    0.92783
1605.50000    0.83188
1606.00000    0.74393
1606.50000    0.66368
1607.00000    0.59078
1607.50000    0.52480
1608.00000    0.46531
1608.50000    0.41186
1609.00000    0.36398
1609.50000    0.32122
1610.00000    0.28315
1610.50000    0.24937
1611.00000    0.21949
1611.50000    0.19316
1612.00000    0.17006
1612.50000    0.14990
1613.00000    0.13240
1613.50000    0.11731
1614.00000    0.10439
1614.50000    0.09343
1615.00000    0.08419
1615.50000    0.07645
1616.00000    0.07000
1616.50000    0.06460
1617.00000    0.06004
1617.50000    0.05610
1618.00000    0.05254
1618.50000    0.04915
1619.00000    0.04572
1619.50000    0.04208
1620.00000    0.03805
1620.50000    0.03350
1621.00000    0.02833
1621.50000    0.02248
1622.00000    0.01594
1622.50000    0.00874
1623.00000    0.00098
1623.50000   -0.00722
1624.00000   -0.01568
1624.50000   -0.02417
1625.00000   -0.03244
1625.50000   -0.04020
1626.00000   -0.04716
1626.50000   -0.05300
1627.00000   -0.05741
1627.50000   -0.06012
1628.00000   -0.06084
1628.50000   -0.05936
1629.00000   -0.05548
1629.50000   -0.04908
1630.00000   -0.04010
1630.50000   -0.02851
1631.00000   -0.01441
1631.50000    0.00209
1632.00000    0.02076
1632.50000    0.04134
1633.00000    0.06347
1633.50000    0.08676
1634.00000    0.11076
1634.50000    0.13497
1635.00000    0.15890
1635.50000    0.18199
1636.00000    0.20371
1636.50000    0.22354
1637.00000    0.24097
1637.50000    0.25552
1638.00000    0.26677
1638.50000    0.27436
1639.00000    0.27797
1639.50000    0.27740
1640.00000    0.27248
1640.50000    0.26316
1641.00000    0.24945
1641.50000    0.23147
1642.00000    0.20941
1642.50000    0.18354
1643.00000    0.15422
1643.50000    0.12184
1644.00000    0.08689
1644.50000    0.04987
1645.00000    0.01134
1645.50000   -0.02814
1646.00000   -0.06798
1646.50000   -0.10760
1647.00000   -0.14644
1647.50000   -0.18395
1648.00000   -0.21963
1648.50000   -0.25302
1649.00000   -0.28371
1649.50000   -0.31133
1650.00000   -0.33558
1650.50000   -0.35624
1651.00000   -0.37311
1651.50000   -0.38607
1652.00000   -0.39508
1652.50000   -0.40011
1653.00000   -0.40121
1653.50000   -0.39846
1654.00000   -0.39200
1654.50000   -0.38199
1655.00000   -0.36860
1655.50000   -0.35204
1656.00000   -0.33254
1656.50000   -0.31032
1657.00000   -0.28563
1657.50000   -0.25868
1658.00000   -0.22971
1658.50000   -0.19893
1659.00000   -0.16656
1659.50000   -0.13278
1660.00000   -0.09779
1660.50000   -0.06176
1661.00000   -0.02485
1661.50000    0.01277
1662.00000    0.05093
1662.50000    0.08949
1663.00000    0.12826
1663.50000    0.16706
1664.00000    0.20571
1664.50000    0.24399
1665.00000    0.28166
1665.50000    0.31848
1666.00000    0.35418
1666.50000    0.38847
1667.00000    0.42104
1667.50000    0.45159
1668.00000    0.47979
1668.50000    0.50533
1669.00000    0.52791
1669.50000    0.54723
1670.00000    0.56305
1670.50000    0.57512
1671.00000    0.58327
1671.50000    0.58735
1672.00000    0.58728
1672.50000    0.58303
1673.00000    0.57462
1673.50000    0.56214
1674.00000    0.54573
1674.50000    0.52558
1675.00000    0.50192
1675.50000    0.47504
1676.00000    0.44524
1676.50000    0.41288
1677.00000    0.37830
1677.50000    0.34189
1678.00000    0.30404
1678.50000    0.26512
1679.00000    0.22552
1679.50000    0.18560
1680.00000    0.14572
1680.50000    0.10623
1681.00000    0.06743
1681.50000    0.02964
1682.00000   -0.00686
1682.50000   -0.04181
1683.00000   -0.07498
1683.50000   -0.10614
1684.00000   -0.13510
1684.50000   -0.16170
1685.00000   -0.18578
1685.50000   -0.20723
1686.00000   -0.22595
1686.50000   -0.24187
1687.00000   -0.25495
1687.50000   -0.26518
1688.00000   -0.27258
1688.50000   -0.27720
1689.00000   -0.27911
1689.50000   -0.27843
1690.00000   -0.27527
1690.50000   -0.26980
1691.00000   -0.26218
1691.50000   -0.25262
1692.00000   -0.24131
1692.50000   -0.22846
1693.00000   -0.21430
1693.50000   -0.19903
1694.00000   -0.18289
1694.50000   -0.16607
1695.00000   -0.14878
1695.50000   -0.13120
1696.00000   -0.11351
1696.50000   -0.09588
1697.00000   -0.07846
1697.50000   -0.06139
1698.00000   -0.04481
1698.50000   -0.02883
1699.00000   -0.01357
1699.50000    0.00086
1700.00000    0.01434
1700.50000    0.02680
1701.00000    0.03812
1701.50000    0.04823
1702.00000    0.05706
1702.50000    0.06455
1703.00000    0.07066
1703.50000    0.07538
1704.00000    0.07872
1704.50000    0.08073
1705.00000    0.08148
1705.50000    0.08108
1706.00000    0.07970
1706.50000    0.07751
1707.00000    0.07473
1707.50000    0.07160
1708.00000    0.06838
1708.50000    0.06535
1709.00000    0.06276
1709.50000    0.06088
1710.00000    0.05994
1710.50000    0.06013
1711.00000    0.06160
1711.50000    0.06445
1712.00000    0.06870
1712.50000    0.07433
1713.00000    0.08123
1713.50000    0.08926
1714.00000    0.09821
1714.50000    0.10782
1715.00000    0.11781
1715.50000    0.12787
1716.00000    0.13772
1716.50000    0.14706
1717.00000    0.15562
1717.50000    0.16318
1718.00000    0.16958
1718.50000    0.17469
1719.00000    0.17847
1719.50000    0.18092
1720.00000    0.18209
1720.50000    0.18211
1721.00000    0.18111
1721.50000    0.17927
1722.00000    0.17677
1722.50000    0.17379
1723.00000    0.17047
1723.50000    0.16694
1724.00000    0.16328
1724.50000    0.15949
1725.00000    0.15557
1725.50000    0.15141
1726.00000    0.14689
1726.50000    0.14185
1727.00000    0.13610
1727.50000    0.12947
1728.00000    0.12176
1728.50000    0.11284
1729.00000    0.10262
1729.50000    0.09106
1730.00000    0.07819
1730.50000    0.06412
1731.00000    0.04906
1731.50000    0.03326
1732.00000    0.01705
1732.50000    0.00083
1733.00000   -0.01499
1733.50000   -0.02998
1734.00000   -0.04371
1734.50000   -0.05580
1735.00000   -0.06591
1735.50000   -0.07378
1736.00000   -0.07925
1736.50000   -0.08227
1737.00000   -0.08288
1737.50000   -0.08128
1738.00000   -0.07774
1738.50000   -0.07266
1739.00000   -0.06651
1739.50000   -0.05982
1740.00000   -0.05317
1740.50000   -0.04714
1741.00000   -0.04229
1741.50000   -0.03913
1742.00000   -0.03812
1742.50000   -0.03961
1743.00000   -0.04386
1743.50000   -0.05098
1744.00000   -0.06099
1744.50000   -0.07375
1745.00000   -0.08901
1745.50000   -0.10642
1746.00000   -0.12551
1746.50000   -0.14574
1747.00000   -0.16650
1747.50000   -0.18717
1748.00000   -0.20708
1748.50000   -0.22560
1749.00000   -0.24211
1749.50000   -0.25607
1750.00000   -0.26699
1750.50000   -0.27446
1751.00000   -0.27818
1751.50000   -0.27795
1752.00000   -0.27367
1752.50000   -0.26533
1753.00000   -0.25304
1753.50000   -0.23698
1754.00000   -0.21742
1754.50000   -0.19470
1755.00000   -0.16920
1755.50000   -0.14137
1756.00000   -0.11167
1756.50000   -0.08060
1757.00000   -0.04865
1757.50000   -0.01631
1758.00000    0.01592
1758.50000    0.04758
1759.00000    0.07822
1759.50000    0.10742
1760.00000    0.13481
1760.50000    0.16003
1761.00000    0.18279
1761.50000    0.20282
1762.00000    0.21990
1762.50000    0.23388
1763.00000    0.24462
1763.50000    0.25205
1764.00000    0.25615
1764.50000    0.25695
1765.00000    0.25453
1765.50000    0.24900
1766.00000    0.24055
1766.50000    0.22940
1767.00000    0.21581
1767.50000    0.20008
1768.00000    0.18255
1768.50000    0.16358
1769.00000    0.14355
1769.50000    0.12283
1770.00000    0.10183
1770.50000    0.08092
1771.00000    0.06047
1771.50000    0.04082
1772.00000    0.02227
1772.50000    0.00509
1773.00000   -0.01048
1773.50000   -0.02428
1774.00000   -0.03617
1774.50000   -0.04607
1775.00000   -0.05394
1775.50000   -0.05978
1776.00000   -0.06364
1776.50000   -0.06558
1777.00000   -0.06570
1777.50000   -0.06410
1778.00000   -0.06091
1778.50000   -0.05624
1779.00000   -0.05020
1779.50000   -0.04290
1780.00000   -0.03445
1780.50000   -0.02491
1781.00000   -0.01436
1781.50000   -0.00288
1782.00000    0.00948
1782.50000    0.02263
1783.00000    0.03649
1783.50000    0.05096
1784.00000    0.06591
1784.50000    0.08117
1785.00000    0.09655
1785.50000    0.11182
1786.00000    0.12669
1786.50000    0.14086
1787.00000    0.15400
1787.50000    0.16576
1788.00000    0.17577
1788.50000    0.18367
1789.00000    0.18911
1789.50000    0.19178
1790.00000    0.19139
1790.50000    0.18773
1791.00000    0.18064
1791.50000    0.17006
1792.00000    0.15599
1792.50000    0.13854
1793.00000    0.11787
1793.50000    0.09427
1794.00000    0.06808
1794.50000    0.03973
1795.00000    0.00968
1795.50000   -0.02155
1796.00000   -0.05340
1796.50000   -0.08533
1797.00000   -0.11678
1797.50000   -0.14724
1798.00000   -0.17619
1798.50000   -0.20321
1799.00000   -0.22789
1799.50000   -0.24990
1800.00000   -0.26900
1800.50000   -0.28497
1801.00000   -0.29770
1801.50000   -0.30712
1802.00000   -0.31323
1802.50000   -0.31608
1803.00000   -0.31577
1803.50000   -0.31245
1804.00000   -0.30627
1804.50000   -0.29745
1805.00000   -0.28621
1805.50000   -0.27277
1806.00000   -0.25739
1806.50000   -0.24033
1807.00000   -0.22182
1807.50000   -0.20214
1808.00000   -0.18154
1808.50000   -0.16027
1809.00000   -0.13858
1809.50000   -0.11672
1810.00000   -0.09493
1810.50000   -0.07343
1811.00000   -0.05244
1811.50000   -0.03217
1812.00000   -0.01280
1812.50000    0.00548
1813.00000    0.02254
1813.50000    0.03825
1814.00000    0.05250
1814.50000    0.06521
1815.00000    0.07634
1815.50000    0.08586
1816.00000    0.09378
1816.50000    0.10013
1817.00000    0.10495
1817.50000    0.10832
1818.00000    0.11034
1818.50000    0.11109
1819.00000    0.11071
1819.50000    0.10929
1820.00000    0.10698
1820.50000    0.10388
1821.00000    0.10012
1821.50000    0.09580
1822.00000    0.09103
1822.50000    0.08590
1823.00000    0.08049
1823.50000    0.07488
1824.00000    0.06912
1824.50000    0.06329
1825.00000    0.05744
1825.50000    0.05161
1826.00000    0.04588
1826.50000    0.04031
1827.00000    0.03498
1827.50000    0.02999
1828.00000    0.02546
1828.50000    0.02152
1829.00000    0.01834
1829.50000    0.01610
1830.00000    0.01503
1830.50000    0.01535
1831.00000    0.01732
1831.50000    0.02119
1832.00000    0.02725
1832.50000    0.03574
1833.00000    0.04694
1833.50000    0.06105
1834.00000    0.07829
1834.50000    0.09880
1835.00000    0.12269
1835.50000    0.14998
1836.00000    0.18065
1836.50000    0.21458
1837.00000    0.25159
1837.50000    0.29142
1838.00000    0.33373
1838.50000    0.37811
1839.00000    0.42408
1839.50000    0.47111
1840.00000    0.51865
1840.50000    0.56608
1841.00000    0.61279
1841.50000    0.65818
1842.00000    0.70164
1842.50000    0.74260
1843.00000    0.78051
1843.50000    0.81489
1844.00000    0.84528
1844.50000    0.87130
1845.00000    0.89262
1845.50000    0.90897
1846.00000    0.92011
1846.50000    0.92589
1847.00000    0.92619
1847.50000    0.92092
1848.00000    0.91007
1848.50000    0.89363
1849.00000    0.87166
1849.50000    0.84425
1850.00000    0.81151
1850.50000    0.77362
1851.00000    0.73080
1851.50000    0.68330
1852.00000    0.63146
1852.50000    0.57566
1853.00000    0.51633
1853.50000    0.45399
1854.00000    0.38922
1854.50000    0.32265
1855.00000    0.25496
1855.50000    0.18690
1856.00000    0.11924
1856.50000    0.05275
1857.00000   -0.01175
1857.50000   -0.07350
1858.00000   -0.13177
1858.50000   -0.18586
1859.00000   -0.23518
1859.50000   -0.27921
1860.00000   -0.31756
1860.50000   -0.34992
1861.00000   -0.37614
1861.50000   -0.39618
1862.00000   -0.41012
1862.50000   -0.41817
1863.00000   -0.42062
1863.50000   -0.41787
1864.00000   -0.41036
1864.50000   -0.39861
1865.00000   -0.38316
1865.50000   -0.36455
1866.00000   -0.34331
1866.50000   -0.31995
1867.00000   -0.29495
1867.50000   -0.26871
1868.00000   -0.24160
1868.50000   -0.21391
1869.00000   -0.18589
1869.50000   -0.15773
1870.00000   -0.12957
1870.50000   -0.10154
1871.00000   -0.07372
1871.50000   -0.04621
1872.00000   -0.01908
1872.50000    0.00754
1873.00000    0.03355
1873.50000    0.05877
1874.00000    0.08304
1874.50000    0.10614
1875.00000    0.12785
1875.50000    0.14794
1876.00000    0.16618
1876.50000    0.18237
1877.00000    0.19631
1877.50000    0.20789
1878.00000    0.21701
1878.50000    0.22368
1879.00000    0.22795
1879.50000    0.22996
1880.00000    0.22993
1880.50000    0.22811
1881.00000    0.22483
1881.50000    0.22045
1882.00000    0.21535
1882.50000    0.20991
1883.00000    0.20449
1883.50000    0.19941
1884.00000    0.19493
1884.50000    0.19123
1885.00000    0.18843
1885.50000    0.18654
1886.00000    0.18546
1886.50000    0.18504
1887.00000    0.18501
1887.50000    0.18504
1888.00000    0.18477
1888.50000    0.18378
1889.00000    0.18166
1889.50000    0.17798
1890.00000    0.17239
1890.50000    0.16456
1891.00000    0.15426
1891.50000    0.14132
1892.00000    0.12571
1892.50000    0.10746
1893.00000    0.08672
1893.50000    0.06374
1894.00000    0.03885
1894.50000    0.01244
1895.00000   -0.01504
1895.50000   -0.04310
1896.00000   -0.07124
1896.50000   -0.09898
1897.00000   -0.12585
1897.50000   -0.15143
1898.00000   -0.17533
1898.50000   -0.19724
1899.00000   -0.21692
1899.50000   -0.23420
1900.00000   -0.24896
1900.50000   -0.26117
1901.00000   -0.27084
1901.50000   -0.27803
1902.00000   -0.28283
1902.50000   -0.28536
1903.00000   -0.28574
1903.50000   -0.28411
1904.00000   -0.28057
1904.50000   -0.27521
1905.00000   -0.26811
1905.50000   -0.25931
1906.00000   -0.24882
1906.50000   -0.23663
1907.00000   -0.22272
1907.50000   -0.20704
1908.00000   -0.18957
1908.50000   -0.17028
1909.00000   -0.14915
1909.50000   -0.12623
1910.00000   -0.10159
1910.50000   -0.07536
1911.00000   -0.04772
1911.50000   -0.01892
1912.00000    0.01073
1912.50000    0.04086
1913.00000    0.07108
1913.50000    0.10093
1914.00000    0.12994
1914.50000    0.15764
1915.00000    0.18357
1915.50000    0.20730
1916.00000    0.22845
1916.50000    0.24668
1917.00000    0.26177
1917.50000    0.27354
1918.00000    0.28196
1918.50000    0.28704
1919.00000    0.28894
1919.50000    0.28786
1920.00000    0.28412
1920.50000    0.27807
1921.00000    0.27013
1921.50000    0.26073
1922.00000    0.25032
1922.50000    0.23934
1923.00000    0.22817
1923.50000    0.21716
1924.00000    0.20661
1924.50000    0.19672
1925.00000    0.18763
1925.50000    0.17939
1926.00000    0.17200
1926.50000    0.16538
1927.00000    0.15939
1927.50000    0.15389
1928.00000    0.14868
1928.50000    0.14359
1929.00000    0.13844
1929.50000    0.13311
1930.00000    0.12748
1930.50000    0.12151
1931.00000    0.11520
1931.50000    0.10858
1932.00000    0.10176
1932.50000    0.09484
1933.00000    0.08799
1933.50000    0.08134
1934.00000    0.07507
1934.50000    0.06930
1935.00000    0.06415
1935.50000    0.05969
1936.00000    0.05595
1936.50000    0.05290
1937.00000    0.05049
1937.50000    0.04859
1938.00000    0.04706
1938.50000    0.04572
1939.00000    0.04438
1939.50000    0.04282
1940.00000    0.04085
1940.50000    0.03829
1941.00000    0.03500
1941.50000    0.03084
1942.00000    0.02573
1942.50000    0.01965
1943.00000    0.01258
1943.50000    0.00456
1944.00000   -0.00435
1944.50000   -0.01406
1945.00000   -0.02447
1945.50000   -0.03548
1946.00000   -0.04700
1946.50000   -0.05894
1947.00000   -0.07123
1947.50000   -0.08383
1948.00000   -0.09672
1948.50000   -0.10988
1949.00000   -0.12332
1949.50000   -0.13706
1950.00000   -0.15111
1950.50000   -0.16549
1951.00000   -0.18018
1951.50000   -0.19516
1952.00000   -0.21037
1952.50000   -0.22573
1953.00000   -0.24110
1953.50000   -0.25634
1954.00000   -0.27125
1954.50000   -0.28561
1955.00000   -0.29919
1955.50000   -0.31172
1956.00000   -0.32296
1956.50000   -0.33264
1957.00000   -0.34052
1957.50000   -0.34637
1958.00000   -0.34999
1958.50000   -0.35121
1959.00000   -0.34990
1959.50000   -0.34597
1960.00000   -0.33937
1960.50000   -0.33010
1961.00000   -0.31819
1961.50000   -0.30374
1962.00000   -0.28686
1962.50000   -0.26773
1963.00000   -0.24654
1963.50000   -0.22355
1964.00000   -0.19901
1964.50000   -0.17323
1965.00000   -0.14655
1965.50000   -0.11932
1966.00000   -0.09192
1966.50000   -0.06473
1967.00000   -0.03815
1967.50000   -0.01260
1968.00000    0.01155
1968.50000    0.03389
1969.00000    0.05408
1969.50000    0.07178
1970.00000    0.08672
1970.50000    0.09867
1971.00000    0.10747
1971.50000    0.11302
1972.00000    0.11530
1972.50000    0.11439
1973.00000    0.11042
1973.50000    0.10361
1974.00000    0.09426
1974.50000    0.08274
1975.00000    0.06946
1975.50000    0.05491
1976.00000    0.03956
1976.50000    0.02395
1977.00000    0.00859
1977.50000   -0.00602
1978.00000   -0.01940
1978.50000   -0.03113
1979.00000   -0.04081
1979.50000   -0.04814
1980.00000   -0.05288
1980.50000   -0.05486
1981.00000   -0.05398
1981.50000   -0.05025
1982.00000   -0.04371
1982.50000   -0.03449
1983.00000   -0.02278
1983.50000   -0.00879
1984.00000    0.00718
1984.50000    0.02485
1985.00000    0.04390
1985.50000    0.06400
1986.00000    0.08482
1986.50000    0.10606
1987.00000    0.12739
1987.50000    0.14854
1988.00000    0.16922
1988.50000    0.18919
1989.00000    0.20821
1989.50000    0.22605
1990.00000    0.24252
1990.50000    0.25741
1991.00000    0.27052
1991.50000    0.28168
1992.00000    0.29071
1992.50000    0.29744
1993.00000    0.30170
1993.50000    0.30335
1994.00000    0.30226
1994.50000    0.29834
1995.00000    0.29153
1995.50000    0.28182
1996.00000    0.26924
1996.50000    0.25391
1997.00000    0.23599
1997.50000    0.21576
1998.00000    0.19352
1998.50000    0.16971
1999.00000    0.14480
1999.50000    0.11934
2000.00000    0.09393
2000.50000    0.06922
2001.00000    0.04587
2001.50000    0.02454
2002.00000    0.00587
2002.50000   -0.00956
2003.00000   -0.02123
2003.50000   -0.02873
2004.00000   -0.03177
2004.50000   -0.03020
2005.00000   -0.02402
2005.50000   -0.01338
2006.00000    0.00138
2006.50000    0.01977
2007.00000    0.04116
2007.50000    0.06476
2008.00000    0.08969
2008.50000    0.11497
2009.00000    0.13956
2009.50000    0.16242
2010.00000    0.18253
2010.50000    0.19891
2011.00000    0.21068
2011.50000    0.21709
2012.00000    0.21754
2012.50000    0.21160
2013.00000    0.19905
2013.50000    0.17985
2014.00000    0.15419
2014.50000    0.12244
2015.00000    0.08514
2015.50000    0.04304
2016.00000   -0.00300
2016.50000   -0.05200
2017.00000   -0.10289
2017.50000   -0.15455
2018.00000   -0.20585
2018.50000   -0.25566
2019.00000   -0.30293
2019.50000   -0.34665
2020.00000   -0.38595
2020.50000   -0.42005
2021.00000   -0.44832
2021.50000   -0.47029
2022.00000   -0.48562
2022.50000   -0.49415
2023.00000   -0.49587
2023.50000   -0.49090
2024.00000   -0.47949
2024.50000   -0.46204
2025.00000   -0.43901
2025.50000   -0.41097
2026.00000   -0.37855
2026.50000   -0.34240
2027.00000   -0.30322
2027.50000   -0.26169
2028.00000   -0.21848
2028.50000   -0.17423
2029.00000   -0.12953
2029.50000   -0.08490
2030.00000   -0.04081
2030.50000    0.00236
2031.00000    0.04431
2031.50000    0.08482
2032.00000    0.12375
2032.50000    0.16102
2033.00000    0.19663
2033.50000    0.23060
2034.00000    0.26302
2034.50000    0.29399
2035.00000    0.32362
2035.50000    0.35201
2036.00000    0.37924
2036.50000    0.40538
2037.00000    0.43043
2037.50000    0.45437
2038.00000    0.47713
2038.50000    0.49859
2039.00000    0.51861
2039.50000    0.53699
2040.00000    0.55353
2040.50000    0.56802
2041.00000    0.58026
2041.50000    0.59006
2042.00000    0.59726
2042.50000    0.60174
2043.00000    0.60345
2043.50000    0.60236
2044.00000    0.59852
2044.50000    0.59202
2045.00000    0.58299
2045.50000    0.57161
2046.00000    0.55805
2046.50000    0.54252
2047.00000    0.52522
2047.50000    0.50630
2048.00000    0.48591
2048.50000    0.46416
2049.00000    0.44109
2049.50000    0.41672
2050.00000    0.39101
2050.50000    0.36391
2051.00000    0.33533
2051.50000    0.30519
2052.00000    0.27343
2052.50000    0.24001
2053.00000    0.20495
2053.50000    0.16836
2054.00000    0.13042
2054.50000    0.09140
2055.00000    0.05170
2055.50000    0.01179
2056.00000   -0.02776
2056.50000   -0.06629
2057.00000   -0.10310
2057.50000   -0.13744
2058.00000   -0.16857
2058.50000   -0.19576
2059.00000   -0.21834
2059.50000   -0.23573
2060.00000   -0.24743
2060.50000   -0.25308
2061.00000   -0.25246
2061.50000   -0.24549
2062.00000   -0.23223
2062.50000   -0.21290
2063.00000   -0.18784
2063.50000   -0.15751
2064.00000   -0.12247
2064.50000   -0.08336
2065.00000   -0.04088
2065.50000    0.00424
2066.00000    0.05126
2066.50000    0.09945
2067.00000    0.14809
2067.50000    0.19650
2068.00000    0.24407
2068.50000    0.29022
2069.00000    0.33444
2069.50000    0.37628
2070.00000    0.41534
2070.50000    0.45129
2071.00000    0.48383
2071.50000    0.51272
2072.00000    0.53778
2072.50000    0.55883
2073.00000    0.57576
2073.50000    0.58848
2074.00000    0.59692
2074.50000    0.60106
2075.00000    0.60091
2075.50000    0.59649
2076.00000    0.58788
2076.50000    0.57517
2077.00000    0.55850
2077.50000    0.53805
2078.00000    0.51403
2078.50000    0.48669
2079.00000    0.45632
2079.50000    0.42325
2080.00000    0.38783
2080.50000    0.35048
2081.00000    0.31163
2081.50000    0.27173
2082.00000    0.23126
2082.50000    0.19073
2083.00000    0.15065
2083.50000    0.11153
2084.00000    0.07389
2084.50000    0.03821
2085.00000    0.00496
2085.50000   -0.02543
2086.00000   -0.05257
2086.50000   -0.07614
2087.00000   -0.09588
2087.50000   -0.11162
2088.00000   -0.12324
2088.50000   -0.13075
2089.00000   -0.13421
2089.50000   -0.13377
2090.00000   -0.12968
2090.50000   -0.12224
2091.00000   -0.11182
2091.50000   -0.09884
2092.00000   -0.08375
2092.50000   -0.06702
2093.00000   -0.04914
2093.50000   -0.03057
2094.00000   -0.01175
2094.50000    0.00691
2095.00000    0.02504
2095.50000    0.04234
2096.00000    0.05854
2096.50000    0.07344
2097.00000    0.08690
2097.50000    0.09880
2098.00000    0.10911
2098.50000    0.11778
2099.00000    0.12484
2099.50000    0.13030
2100.00000    0.13421
2100.50000    0.13661
2101.00000    0.13754
2101.50000    0.13705
2102.00000    0.13518
2102.50000    0.13196
2103.00000    0.12743
2103.50000    0.12162
2104.00000    0.11456
2104.50000    0.10629
2105.00000    0.09686
2105.50000    0.08632
2106.00000    0.07474
2106.50000    0.06219
2107.00000    0.04875
2107.50000    0.03452
2108.00000    0.01957
2108.50000    0.00399
2109.00000   -0.01215
2109.50000   -0.02878
2110.00000   -0.04586
2110.50000   -0.06336
2111.00000   -0.08129
2111.50000   -0.09965
2112.00000   -0.11847
2112.50000   -0.13779
2113.00000   -0.15767
2113.50000   -0.17813
2114.00000   -0.19920
2114.50000   -0.22089
2115.00000   -0.24314
2115.50000   -0.26589
2116.00000   -0.28900
2116.50000   -0.31230
2117.00000   -0.33553
2117.50000   -0.35841
2118.00000   -0.38059
2118.50000   -0.40169
2119.00000   -0.42128
2119.50000   -0.43892
2120.00000   -0.45418
2120.50000   -0.46663
2121.00000   -0.47587
2121.50000   -0.48155
2122.00000   -0.48338
2122.50000   -0.48114
2123.00000   -0.47470
2123.50000   -0.46401
2124.00000   -0.44912
2124.50000   -0.43018
2125.00000   -0.40741
2125.50000   -0.38112
2126.00000   -0.35170
2126.50000   -0.31958
2127.00000   -0.28525
2127.50000   -0.24920
2128.00000   -0.21197
2128.50000   -0.17405
2129.00000   -0.13597
2129.50000   -0.09818
2130.00000   -0.06112
2130.50000   -0.02518
2131.00000    0.00930
2131.50000    0.04203
2132.00000    0.07278
2132.50000    0.10136
2133.00000    0.12763
2133.50000    0.15150
2134.00000    0.17292
2134.50000    0.19186
2135.00000    0.20833
2135.50000    0.22238
2136.00000    0.23406
2136.50000    0.24348
2137.00000    0.25072
2137.50000    0.25593
2138.00000    0.25926
2138.50000    0.26086
2139.00000    0.26094
2139.50000    0.25969
2140.00000    0.25733
2140.50000    0.25409
2141.00000    0.25019
2141.50000    0.24587
2142.00000    0.24135
2142.50000    0.23686
2143.00000    0.23260
2143.50000    0.22875
2144.00000    0.22546
2144.50000    0.22286
2145.00000    0.22106
2145.50000    0.22012
2146.00000    0.22008
2146.50000    0.22094
2147.00000    0.22270
2147.50000    0.22532
2148.00000    0.22874
2148.50000    0.23291
2149.00000    0.23774
2149.50000    0.24314
2150.00000    0.24904
2150.50000    0.25534
2151.00000    0.26194
2151.50000    0.26874
2152.00000    0.27562
2152.50000    0.28248
2153.00000    0.28919
2153.50000    0.29561
2154.00000    0.30160
2154.50000    0.30701
2155.00000    0.31170
2155.50000    0.31550
2156.00000    0.31828
2156.50000    0.31990
2157.00000    0.32025
2157.50000    0.31925
2158.00000    0.31683
2158.50000    0.31300
2159.00000    0.30779
2159.50000    0.30127
2160.00000    0.29357
2160.50000    0.28486
2161.00000    0.27533
2161.50000    0.26522
2162.00000    0.25478
2162.50000    0.24424
2163.00000    0.23385
2163.50000    0.22381
2164.00000    0.21429
2164.50000    0.20540
2165.00000    0.19720
2165.50000    0.18967
2166.00000    0.18271
2166.50000    0.17616
2167.00000    0.16978
2167.50000    0.16328
2168.00000    0.15632
2168.50000    0.14853
2169.00000    0.13952
2169.50000    0.12892
2170.00000    0.11639
2170.50000    0.10164
2171.00000    0.08444
2171.50000    0.06464
2172.00000    0.04221
2172.50000    0.01718
2173.00000   -0.01028
2173.50000   -0.03991
2174.00000   -0.07137
2174.50000   -0.10424
2175.00000   -0.13801
2175.50000   -0.17217
2176.00000   -0.20615
2176.50000   -0.23942
2177.00000   -0.27146
2177.50000   -0.30178
2178.00000   -0.32999
2178.50000   -0.35574
2179.00000   -0.37881
2179.50000   -0.39905
2180.00000   -0.41640
2180.50000   -0.43090
2181.00000   -0.44267
2181.50000   -0.45187
2182.00000   -0.45872
2182.50000   -0.46348
2183.00000   -0.46640
2183.50000   -0.46772
2184.00000   -0.46766
2184.50000   -0.46639
2185.00000   -0.46405
2185.50000   -0.46071
2186.00000   -0.45637
2186.50000   -0.45099
2187.00000   -0.44448
2187.50000   -0.43671
2188.00000   -0.42750
2188.50000   -0.41670
2189.00000   -0.40412
2189.50000   -0.38961
2190.00000   -0.37305
2190.50000   -0.35434
2191.00000   -0.33345
2191.50000   -0.31040
2192.00000   -0.28527
2192.50000   -0.25819
2193.00000   -0.22937
2193.50000   -0.19904
2194.00000   -0.16750
2194.50000   -0.13509
2195.00000   -0.10214
2195.50000   -0.06905
2196.00000   -0.03620
2196.50000   -0.00396
2197.00000    0.02727
2197.50000    0.05714
2198.00000    0.08529
2198.50000    0.11141
2199.00000    0.13522
2199.50000    0.15645
2200.00000    0.17489
2200.50000    0.19037
2201.00000    0.20275
2201.50000    0.21197
2202.00000    0.21800
2202.50000    0.22087
2203.00000    0.22065
2203.50000    0.21750
2204.00000    0.21159
2204.50000    0.20319
2205.00000    0.19257
2205.50000    0.18006
2206.00000    0.16602
2206.50000    0.15082
2207.00000    0.13484
2207.50000    0.11846
2208.00000    0.10204
2208.50000    0.08591
2209.00000    0.07038
2209.50000    0.05569
2210.00000    0.04206
2210.50000    0.02962
2211.00000    0.01847
2211.50000    0.00866
2212.00000    0.00018
2212.50000   -0.00703
2213.00000   -0.01304
2213.50000   -0.01797
2214.00000   -0.02196
2214.50000   -0.02516
2215.00000   -0.02773
2215.50000   -0.02983
2216.00000   -0.03162
2216.50000   -0.03326
2217.00000   -0.03491
2217.50000   -0.03670
2218.00000   -0.03878
2218.50000   -0.04128
2219.00000   -0.04432
2219.50000   -0.04801
2220.00000   -0.05245
2220.50000   -0.05769
2221.00000   -0.06378
2221.50000   -0.07072
2222.00000   -0.07846
2222.50000   -0.08691
2223.00000   -0.09590
2223.50000   -0.10524
2224.00000   -0.11465
2224.50000   -0.12379
2225.00000   -0.13231
2225.50000   -0.13979
2226.00000   -0.14579
2226.50000   -0.14991
2227.00000   -0.15172
2227.50000   -0.15086
2228.00000   -0.14703
2228.50000   -0.14001
2229.00000   -0.12967
2229.50000   -0.11599
2230.00000   -0.09908
2230.50000   -0.07916
2231.00000   -0.05653
2231.50000   -0.03163
2232.00000   -0.00496
2232.50000    0.02294
2233.00000    0.05148
2233.50000    0.08006
2234.00000    0.10813
2234.50000    0.13517
2235.00000    0.16073
2235.50000    0.18446
2236.00000    0.20609
2236.50000    0.22547
2237.00000    0.24255
2237.50000    0.25738
2238.00000    0.27007
2238.50000    0.28082
2239.00000    0.28985
2239.50000    0.29743
2240.00000    0.30380
2240.50000    0.30917
2241.00000    0.31374
2241.50000    0.31763
2242.00000    0.32088
2242.50000    0.32347
2243.00000    0.32533
2243.50000    0.32628
2244.00000    0.32612
2244.50000    0.32461
2245.00000    0.32147
2245.50000    0.31644
2246.00000    0.30926
2246.50000    0.29971
2247.00000    0.28763
2247.50000    0.27293
2248.00000    0.25556
2248.50000    0.23560
2249.00000    0.21316
2249.50000    0.18845
2250.00000    0.16175
2250.50000    0.13338
2251.00000    0.10373
2251.50000    0.07320
2252.00000    0.04222
2252.50000    0.01121
2253.00000   -0.01941
2253.50000   -0.04924
2254.00000   -0.07792
2254.50000   -0.10512
2255.00000   -0.13053
2255.50000   -0.15392
2256.00000   -0.17506
2256.50000   -0.19379
2257.00000   -0.20996
2257.50000   -0.22345
2258.00000   -0.23417
2258.50000   -0.24206
2259.00000   -0.24705
2259.50000   -0.24910
2260.00000   -0.24819
2260.50000   -0.24429
2261.00000   -0.23742
2261.50000   -0.22759
2262.00000   -0.21486
2262.50000   -0.19931
2263.00000   -0.18107
2263.50000   -0.16032
2264.00000   -0.13727
2264.50000   -0.11222
2265.00000   -0.08552
2265.50000   -0.05756
2266.00000   -0.02883
2266.50000    0.00016
2267.00000    0.02884
2267.50000    0.05662
2268.00000    0.08286
2268.50000    0.10696
2269.00000    0.12829
2269.50000    0.14630
2270.00000    0.16046
2270.50000    0.17036
2271.00000    0.17564
2271.50000    0.17609
2272.00000    0.17160
2272.50000    0.16222
2273.00000    0.14812
2273.50000    0.12961
2274.00000    0.10714
2274.50000    0.08127
2275.00000    0.05268
2275.50000    0.02212
2276.00000   -0.00961
2276.50000   -0.04166
2277.00000   -0.07320
2277.50000   -0.10342
2278.00000   -0.13157
2278.50000   -0.15699
2279.00000   -0.17912
2279.50000   -0.19751
2280.00000   -0.21187
2280.50000   -0.22203
2281.00000   -0.22797
2281.50000   -0.22981
2282.00000   -0.22778
2282.50000   -0.22224
2283.00000   -0.21362
2283.50000   -0.20242
2284.00000   -0.18920
2284.50000   -0.17453
2285.00000   -0.15897
2285.50000   -0.14307
2286.00000   -0.12735
2286.50000   -0.11226
2287.00000   -0.09820
2287.50000   -0.08549
2288.00000   -0.07440
2288.50000   -0.06512
2289.00000   -0.05775
2289.50000   -0.05237
2290.00000   -0.04899
2290.50000   -0.04757
2291.00000   -0.04804
2291.50000   -0.05029
2292.00000   -0.05419
2292.50000   -0.05960
2293.00000   -0.06634
2293.50000   -0.07424
2294.00000   -0.08308
2294.50000   -0.09265
2295.00000   -0.10273
2295.50000   -0.11306
2296.00000   -0.12337
2296.50000   -0.13340
2297.00000   -0.14285
2297.50000   -0.15144
2298.00000   -0.15887
2298.50000   -0.16487
2299.00000   -0.16917
2299.50000   -0.17155
2300.00000   -0.17180
2300.50000   -0.16978
2301.00000   -0.16538
2301.50000   -0.15856
2302.00000   -0.14933
2302.50000   -0.13777
2303.00000   -0.12402
2303.50000   -0.10826
2304.00000   -0.09073
2304.50000   -0.07170
2305.00000   -0.05148
2305.50000   -0.03038
2306.00000   -0.00874
2306.50000    0.01311
2307.00000    0.03486
2307.50000    0.05620
2308.00000    0.07686
2308.50000    0.09659
2309.00000    0.11515
2309.50000    0.13238
2310.00000    0.14809
2310.50000    0.16215
2311.00000    0.17445
2311.50000    0.18490
2312.00000    0.19341
2312.50000    0.19994
2313.00000    0.20443
2313.50000    0.20685
2314.00000    0.20721
2314.50000    0.20550
2315.00000    0.20175
2315.50000    0.19602
2316.00000    0.18840
2316.50000    0.17899
2317.00000    0.16794
2317.50000    0.15542
2318.00000    0.14166
2318.50000    0.12687
2319.00000    0.11133
2319.50000    0.09531
2320.00000    0.07910
2320.50000    0.06299
2321.00000    0.04726
2321.50000    0.03219
2322.00000    0.01800
2322.50000    0.00491
2323.00000   -0.00689
2323.50000   -0.01729
2324.00000   -0.02620
2324.50000   -0.03356
2325.00000   -0.03938
2325.50000   -0.04368
2326.00000   -0.04655
2326.50000   -0.04805
2327.00000   -0.04831
2327.50000   -0.04744
2328.00000   -0.04554
2328.50000   -0.04274
2329.00000   -0.03912
2329.50000   -0.03475
2330.00000   -0.02968
2330.50000   -0.02395
2331.00000   -0.01753
2331.50000   -0.01042
2332.00000   -0.00255
2332.50000    0.00614
2333.00000    0.01574
2333.50000    0.02632
2334.00000    0.03798
2334.50000    0.05078
2335.00000    0.06478
2335.50000    0.08003
2336.00000    0.09650
2336.50000    0.11418
2337.00000    0.13297
2337.50000    0.15274
2338.00000    0.17332
2338.50000    0.19448
2339.00000    0.21593
2339.50000    0.23735
2340.00000    0.25838
2340.50000    0.27862
2341.00000    0.29766
2341.50000    0.31507
2342.00000    0.33042
2342.50000    0.34330
2343.00000    0.35333
2343.50000    0.36017
2344.00000    0.36354
2344.50000    0.36323
2345.00000    0.35910
2345.50000    0.35109
2346.00000    0.33926
2346.50000    0.32372
2347.00000    0.30469
2347.50000    0.28247
2348.00000    0.25745
2348.50000    0.23005
2349.00000    0.20076
2349.50000    0.17009
2350.00000    0.13860
2350.50000    0.10679
2351.00000    0.07521
2351.50000    0.04432
2352.00000    0.01456
2352.50000   -0.01369
2353.00000   -0.04012
2353.50000   -0.06450
2354.00000   -0.08667
2354.50000   -0.10656
2355.00000   -0.12416
2355.50000   -0.13956
2356.00000   -0.15287
2356.50000   -0.16431
2357.00000   -0.17409
2357.50000   -0.18250
2358.00000   -0.18982
2358.50000   -0.19636
2359.00000   -0.20241
2359.50000   -0.20825
2360.00000   -0.21414
2360.50000   -0.22030
2361.00000   -0.22690
2361.50000   -0.23405
2362.00000   -0.24182
2362.50000   -0.25020
2363.00000   -0.25915
2363.50000   -0.26853
2364.00000   -0.27819
2364.50000   -0.28791
2365.00000   -0.29743
2365.50000   -0.30650
2366.00000   -0.31482
2366.50000   -0.32212
2367.00000   -0.32814
2367.50000   -0.33263
2368.00000   -0.33542
2368.50000   -0.33634
2369.00000   -0.33531
2369.50000   -0.33228
2370.00000   -0.32725
2370.50000   -0.32029
2371.00000   -0.31146
2371.50000   -0.30089
2372.00000   -0.28870
2372.50000   -0.27500
2373.00000   -0.25991
2373.50000   -0.24350
2374.00000   -0.22583
2374.50000   -0.20691
2375.00000   -0.18674
2375.50000   -0.16526
2376.00000   -0.14242
2376.50000   -0.11815
2377.00000   -0.09239
2377.50000   -0.06512
2378.00000   -0.03635
2378.50000   -0.00618
2379.00000    0.02527
2379.50000    0.05773
2380.00000    0.09091
2380.50000    0.12440
2381.00000    0.15771
2381.50000    0.19033
2382.00000    0.22168
2382.50000    0.25115
2383.00000    0.27818
2383.50000    0.30219
2384.00000    0.32268
2384.50000    0.33923
2385.00000    0.35150
2385.50000    0.35923
2386.00000    0.36231
2386.50000    0.36069
2387.00000    0.35445
2387.50000    0.34372
2388.00000    0.32874
2388.50000    0.30978
2389.00000    0.28716
2389.50000    0.26121
2390.00000    0.23228
2390.50000    0.20073
2391.00000    0.16689
2391.50000    0.13112
2392.00000    0.09376
2392.50000    0.05516
2393.00000    0.01570
2393.50000   -0.02421
2394.00000   -0.06413
2394.50000   -0.10355
2395.00000   -0.14192
2395.50000   -0.17865
2396.00000   -0.21307
2396.50000   -0.24452
2397.00000   -0.27228
2397.50000   -0.29568
2398.00000   -0.31406
2398.50000   -0.32683
2399.00000   -0.33350
2399.50000   -0.33371
2400.00000   -0.32723
2400.50000   -0.31402
2401.00000   -0.29420
2401.50000   -0.26809
2402.00000   -0.23617
2402.50000   -0.19911
2403.00000   -0.15772
2403.50000   -0.11295
2404.00000   -0.06581
2404.50000   -0.01740
2405.00000    0.03117
2405.50000    0.07882
2406.00000    0.12450
2406.50000    0.16725
2407.00000    0.20623
2407.50000    0.24073
2408.00000    0.27019
2408.50000    0.29420
2409.00000    0.31251
2409.50000    0.32503
2410.00000    0.33184
2410.50000    0.33311
2411.00000    0.32918
2411.50000    0.32045
2412.00000    0.30742
2412.50000    0.29063
2413.00000    0.27067
2413.50000    0.24814
2414.00000    0.22362
2414.50000    0.19768
2415.00000    0.17087
2415.50000    0.14366
2416.00000    0.11646
2416.50000    0.08965
2417.00000    0.06349
2417.50000    0.03821
2418.00000    0.01393
2418.50000   -0.00926
2419.00000   -0.03136
2419.50000   -0.05243
2420.00000   -0.07254
2420.50000   -0.09184
2421.00000   -0.11048
2421.50000   -0.12861
2422.00000   -0.14641
2422.50000   -0.16402
2423.00000   -0.18157
2423.50000   -0.19913
2424.00000   -0.21676
2424.50000   -0.23442
2425.00000   -0.25205
2425.50000   -0.26950
2426.00000   -0.28656
2426.50000   -0.30298
2427.00000   -0.31841
2427.50000   -0.33249
2428.00000   -0.34479
2428.50000   -0.35488
2429.00000   -0.36230
2429.50000   -0.36661
2430.00000   -0.36738
2430.50000   -0.36424
2431.00000   -0.35688
2431.50000   -0.34506
2432.00000   -0.32864
2432.50000   -0.30760
2433.00000   -0.28204
2433.50000   -0.25217
2434.00000   -0.21836
2434.50000   -0.18107
2435.00000   -0.14089
2435.50000   -0.09852
2436.00000   -0.05472
2436.50000   -0.01031
2437.00000    0.03383
2437.50000    0.07685
2438.00000    0.11791
2438.50000    0.15622
2439.00000    0.19109
2439.50000    0.22192
2440.00000    0.24823
2440.50000    0.26969
2441.00000    0.28612
2441.50000    0.29746
2442.00000    0.30383
2442.50000    0.30546
2443.00000    0.30271
2443.50000    0.29602
2444.00000    0.28594
2444.50000    0.27304
2445.00000    0.25793
2445.50000    0.24123
2446.00000    0.22352
2446.50000    0.20535
2447.00000    0.18721
2447.50000    0.16952
2448.00000    0.15263
2448.50000    0.13679
2449.00000    0.12219
2449.50000    0.10892
2450.00000    0.09702
2450.50000    0.08645
2451.00000    0.07713
2451.50000    0.06894
2452.00000    0.06172
2452.50000    0.05531
2453.00000    0.04956
2453.50000    0.04429
2454.00000    0.03936
2454.50000    0.03465
2455.00000    0.03006
2455.50000    0.02553
2456.00000    0.02102
2456.50000    0.01652
2457.00000    0.01207
2457.50000    0.00770
2458.00000    0.00350
2458.50000   -0.00046
2459.00000   -0.00409
2459.50000   -0.00728
2460.00000   -0.00995
2460.50000   -0.01202
2461.00000   -0.01343
2461.50000   -0.01415
2462.00000   -0.01415
2462.50000   -0.01345
2463.00000   -0.01209
2463.50000   -0.01014
2464.00000   -0.00768
2464.50000   -0.00483
2465.00000   -0.00170
2465.50000    0.00158
2466.00000    0.00488
2466.50000    0.00808
2467.00000    0.01107
2467.50000    0.01376
2468.00000    0.01609
2468.50000    0.01802
2469.00000    0.01955
2469.50000    0.02068
2470.00000    0.02149
2470.50000    0.02204
2471.00000    0.02245
2471.50000    0.02283
2472.00000    0.02333
2472.50000    0.02408
2473.00000    0.02524
2473.50000    0.02694
2474.00000    0.02933
2474.50000    0.03249
2475.00000    0.03652
2475.50000    0.04147
2476.00000    0.04734
2476.50000    0.05410
2477.00000    0.06166
2477.50000    0.06990
2478.00000    0.07861
2478.50000    0.08756
2479.00000    0.09645
2479.50000    0.10496
2480.00000    0.11269
2480.50000    0.11927
2481.00000    0.12426
2481.50000    0.12727
2482.00000    0.12790
2482.50000    0.12578
2483.00000    0.12061
2483.50000    0.11215
2484.00000    0.10024
2484.50000    0.08481
2485.00000    0.06591
2485.50000    0.04365
2486.00000    0.01830
2486.50000   -0.00982
2487.00000   -0.04027
2487.50000   -0.07255
2488.00000   -0.10611
2488.50000   -0.14034
2489.00000   -0.17463
2489.50000   -0.20836
2490.00000   -0.24094
2490.50000   -0.27181
2491.00000   -0.30047
2491.50000   -0.32646
2492.00000   -0.34941
2492.50000   -0.36899
2493.00000   -0.38497
2493.50000   -0.39715
2494.00000   -0.40539
2494.50000   -0.40962
2495.00000   -0.40978
2495.50000   -0.40585
2496.00000   -0.39784
2496.50000   -0.38579
2497.00000   -0.36975
2497.50000   -0.34979
2498.00000   -0.32603
2498.50000   -0.29861
2499.00000   -0.26771
2499.50000   -0.23359
2500.00000   -0.19653
2500.50000   -0.15690
2501.00000   -0.11514
2501.50000   -0.07173
2502.00000   -0.02724
2502.50000    0.01773
2503.00000    0.06252
2503.50000    0.10646
2504.00000    0.14885
2504.50000    0.18901
2505.00000    0.22631
2505.50000    0.26015
2506.00000    0.29001
2506.50000    0.31543
2507.00000    0.33609
2507.50000    0.35173
2508.00000    0.36224
2508.50000    0.36761
2509.00000    0.36791
2509.50000    0.36334
2510.00000    0.35420
2510.50000    0.34083
2511.00000    0.32365
2511.50000    0.30316
2512.00000    0.27983
2512.50000    0.25420
2513.00000    0.22680
2513.50000    0.19813
2514.00000    0.16869
2514.50000    0.13896
2515.00000    0.10938
2515.50000    0.08034
2516.00000    0.05220
2516.50000    0.02530
2517.00000   -0.00009
2517.50000   -0.02373
2518.00000   -0.04542
2518.50000   -0.06497
2519.00000   -0.08226
2519.50000   -0.09717
2520.00000   -0.10963
2520.50000   -0.11959
2521.00000   -0.12702
2521.50000   -0.13194
2522.00000   -0.13437
2522.50000   -0.13438
2523.00000   -0.13208
2523.50000   -0.12759
2524.00000   -0.12108
2524.50000   -0.11274
2525.00000   -0.10279
2525.50000   -0.09149
2526.00000   -0.07912
2526.50000   -0.06596
2527.00000   -0.05232
2527.50000   -0.03849
2528.00000   -0.02475
2528.50000   -0.01136
2529.00000    0.00147
2529.50000    0.01358
2530.00000    0.02488
2530.50000    0.03531
2531.00000    0.04495
2531.50000    0.05390
2532.00000    0.06236
2532.50000    0.07061
2533.00000    0.07895
2533.50000    0.08776
2534.00000    0.09742
2534.50000    0.10832
2535.00000    0.12081
2535.50000    0.13523
2536.00000    0.15181
2536.50000    0.17073
2537.00000    0.19206
2537.50000    0.21574
2538.00000    0.24161
2538.50000    0.26939
2539.00000    0.29867
2539.50000    0.32897
2540.00000    0.35970
2540.50000    0.39022
2541.00000    0.41985
2541.50000    0.44789
2542.00000    0.47365
2542.50000    0.49648
2543.00000    0.51579
2543.50000    0.53105
2544.00000    0.54182
2544.50000    0.54776
2545.00000    0.54864
2545.50000    0.54431
2546.00000    0.53476
2546.50000    0.52003
2547.00000    0.50029
2547.50000    0.47575
2548.00000    0.44673
2548.50000    0.41359
2549.00000    0.37673
2549.50000    0.33662
2550.00000    0.29375
2550.50000    0.24864
2551.00000    0.20183
2551.50000    0.15389
2552.00000    0.10538
2552.50000    0.05688
2553.00000    0.00895
2553.50000   -0.03784
2554.00000   -0.08296
2554.50000   -0.12590
2555.00000   -0.16619
2555.50000   -0.20341
2556.00000   -0.23721
2556.50000   -0.26726
2557.00000   -0.29335
2557.50000   -0.31531
2558.00000   -0.33306
2558.50000   -0.34657
2559.00000   -0.35591
2559.50000   -0.36118
2560.00000   -0.36256
2560.50000   -0.36026
2561.00000   -0.35453
2561.50000   -0.34565
2562.00000   -0.33392
2562.50000   -0.31964
2563.00000   -0.30311
2563.50000   -0.28462
2564.00000   -0.26444
2564.50000   -0.24284
2565.00000   -0.22006
2565.50000   -0.19631
2566.00000   -0.17179
2566.50000   -0.14668
2567.00000   -0.12114
2567.50000   -0.09530
2568.00000   -0.06931
2568.50000   -0.04329
2569.00000   -0.01735
2569.50000    0.00838
2570.00000    0.03378
2570.50000    0.05870
2571.00000    0.08302
2571.50000    0.10656
2572.00000    0.12915
2572.50000    0.15059
2573.00000    0.17066
2573.50000    0.18913
2574.00000    0.20576
2574.50000    0.22029
2575.00000    0.23246
2575.50000    0.24202
2576.00000    0.24875
2576.50000    0.25243
2577.00000    0.25292
2577.50000    0.25010
2578.00000    0.24392
2578.50000    0.23442
2579.00000    0.22171
2579.50000    0.20596
2580.00000    0.18745
2580.50000    0.16654
2581.00000    0.14365
2581.50000    0.11925
2582.00000    0.09389
2582.50000    0.06812
2583.00000    0.04252
2583.50000    0.01767
2584.00000   -0.00591
2584.50000   -0.02770
2585.00000   -0.04727
2585.50000   -0.06428
2586.00000   -0.07843
2586.50000   -0.08956
2587.00000   -0.09759
2587.50000   -0.10255
2588.00000   -0.10456
2588.50000   -0.10383
2589.00000   -0.10065
2589.50000   -0.09539
2590.00000   -0.08846
2590.50000   -0.08030
2591.00000   -0.07139
2591.50000   -0.06222
2592.00000   -0.05324
2592.50000   -0.04490
2593.00000   -0.03760
2593.50000   -0.03170
2594.00000   -0.02750
2594.50000   -0.02522
2595.00000   -0.02504
2595.50000   -0.02705
2596.00000   -0.03126
2596.50000   -0.03763
2597.00000   -0.04606
2597.50000   -0.05637
2598.00000   -0.06836
2598.50000   -0.08175
2599.00000   -0.09625
2599.50000   -0.11154
2600.00000   -0.12728
2600.50000   -0.14312
2601.00000   -0.15870
2601.50000   -0.17367
2602.00000   -0.18769
2602.50000   -0.20042
2603.00000   -0.21155
2603.50000   -0.22080
2604.00000   -0.22789
2604.50000   -0.23260
2605.00000   -0.23472
2605.50000   -0.23411
2606.00000   -0.23066
2606.50000   -0.22430
2607.00000   -0.21504
2607.50000   -0.20294
2608.00000   -0.18812
2608.50000   -0.17080
2609.00000   -0.15121
2609.50000   -0.12969
2610.00000   -0.10661
2610.50000   -0.08241
2611.00000   -0.05754
2611.50000   -0.03250
2612.00000   -0.00777
2612.50000    0.01617
2613.00000    0.03886
2613.50000    0.05991
2614.00000    0.07897
2614.50000    0.09577
2615.00000    0.11015
2615.50000    0.12201
2616.00000    0.13134
2616.50000    0.13823
2617.00000    0.14284
2617.50000    0.14539
2618.00000    0.14615
2618.50000    0.14540
2619.00000    0.14346
2619.50000    0.14060
2620.00000    0.13708
2620.50000    0.13312
2621.00000    0.12888
2621.50000    0.12443
2622.00000    0.11982
2622.50000    0.11500
2623.00000    0.10988
2623.50000    0.10433
2624.00000    0.09818
2624.50000    0.09128
2625.00000    0.08344
2625.50000    0.07455
2626.00000    0.06452
2626.50000    0.05332
2627.00000    0.04099
2627.50000    0.02765
2628.00000    0.01353
2628.50000   -0.00111
2629.00000   -0.01590
2629.50000   -0.03043
2630.00000   -0.04422
2630.50000   -0.05678
2631.00000   -0.06761
2631.50000   -0.07622
2632.00000   -0.08213
2632.50000   -0.08494
2633.00000   -0.08430
2633.50000   -0.07993
2634.00000   -0.07165
2634.50000   -0.05938
2635.00000   -0.04311
2635.50000   -0.02295
2636.00000    0.00094
2636.50000    0.02828
2637.00000    0.05879
2637.50000    0.09208
2638.00000    0.12777
2638.50000    0.16545
2639.00000    0.20472
2639.50000    0.24518
2640.00000    0.28646
2640.50000    0.32823
2641.00000    0.37020
2641.50000    0.41212
2642.00000    0.45378
2642.50000    0.49505
2643.00000    0.53582
2643.50000    0.57603
2644.00000    0.61566
2644.50000    0.65474
2645.00000    0.69332
2645.50000    0.73150
2646.00000    0.76941
2646.50000    0.80723
2647.00000    0.84516
2647.50000    0.88345
2648.00000    0.92242
2648.50000    0.96239
2649.00000    1.00378
2649.50000    1.04701
2650.00000    1.09259
2650.50000    1.14105
2651.00000    1.19292
2651.50000    1.24880
2652.00000    1.30926
2652.50000    1.37486
2653.00000    1.44613
2653.50000    1.52356
2654.00000    1.60755
2654.50000    1.69844
2655.00000    1.79647
2655.50000    1.90176
2656.00000    2.01433
2656.50000    2.13410
2657.00000    2.26085
2657.50000    2.39430
2658.00000    2.53407
2658.50000    2.67973
2659.00000    2.83078
2659.50000    2.98673
2660.00000    3.14707
2660.50000    3.31132
2661.00000    3.47905
2661.50000    3.64986
2662.00000    3.82345
2662.50000    3.99958
2663.00000    4.17807
2663.50000    4.35884
2664.00000    4.54185
2664.50000    4.72710
2665.00000    4.91465
2665.50000    5.10455
2666.00000    5.29682
2666.50000    5.49148
2667.00000    5.68849
2667.50000    5.88771
2668.00000    6.08895
2668.50000    6.29191
2669.00000    6.49618
2669.50000    6.70128
2670.00000    6.90660
2670.50000    7.11145
2671.00000    7.31508
2671.50000    7.51667
2672.00000    7.71536
2672.50000    7.91025
2673.00000    8.10048
2673.50000    8.28516
2674.00000    8.46345
2674.50000    8.63455
2675.00000    8.79773
2675.50000    8.95231
2676.00000    9.09769
2676.50000    9.23333
2677.00000    9.35879
2677.50000    9.47367
2678.00000    9.57766
2678.50000    9.67051
2679.00000    9.75202
2679.50000    9.82207
2680.00000    9.88056
2680.50000    9.92746
2681.00000    9.96279
2681.50000    9.98658
2682.00000    9.99894
2682.50000   10.00000
2683.00000    9.98992
2683.50000    9.96890
2684.00000    9.93717
2684.50000    9.89499
2685.00000    9.84265
2685.50000    9.78044
2686.00000    9.70869
2686.50000    9.62771
2687.00000    9.53786
2687.50000    9.43947
2688.00000    9.33290
2688.50000    9.21853
2689.00000    9.09673
2689.50000    8.96790
2690.00000    8.83248
2690.50000    8.69093
2691.00000    8.54374
2691.50000    8.39146
2692.00000    8.23467
2692.50000    8.07399
2693.00000    7.91009
2693.50000    7.74367
2694.00000    7.57544
2694.50000    7.40615
2695.00000    7.23649
2695.50000    7.06715
2696.00000    6.89878
2696.50000    6.73194
2697.00000    6.56710
2697.50000    6.40465
2698.00000    6.24486
2698.50000    6.08786
2699.00000    5.93369
2699.50000    5.78227
2700.00000    5.63341
2700.50000    5.48685
2701.00000    5.34225
2701.50000    5.19925
2702.00000    5.05746
2702.50000    4.91649
2703.00000    4.77602
2703.50000    4.63574
2704.00000    4.49545
2704.50000    4.35502
2705.00000    4.21440
2705.50000    4.07367
2706.00000    3.93296
2706.50000    3.79252
2707.00000    3.65265
2707.50000    3.51373
2708.00000    3.37617
2708.50000    3.24042
2709.00000    3.10692
2709.50000    2.97613
2710.00000    2.84846
2710.50000    2.72430
2711.00000    2.60400
2711.50000    2.48783
2712.00000    2.37603
2712.50000    2.26873
2713.00000    2.16600
2713.50000    2.06783
2714.00000    1.97413
2714.50000    1.88473
2715.00000    1.79937
2715.50000    1.71774
2716.00000    1.63946
2716.50000    1.56410
2717.00000    1.49118
2717.50000    1.42022
2718.00000    1.35073
2718.50000    1.28226
2719.00000    1.21439
2719.50000    1.14675
2720.00000    1.07910
2720.50000    1.01127
2721.00000    0.94320
2721.50000    0.87499
2722.00000    0.80683
2722.50000    0.73904
2723.00000    0.67204
2723.50000    0.60634
2724.00000    0.54250
2724.50000    0.48113
2725.00000    0.42281
2725.50000    0.36810
2726.00000    0.31749
2726.50000    0.27139
2727.00000    0.23007
2727.50000    0.19370
2728.00000    0.16228
2728.50000    0.13570
2729.00000    0.11373
2729.50000    0.09600
2730.00000    0.08208
2730.50000    0.07148
2731.00000    0.06366
2731.50000    0.05811
2732.00000    0.05432
2732.50000    0.05184
2733.00000    0.05028
2733.50000    0.04931
2734.00000    0.04869
2734.50000    0.04825
2735.00000    0.04786
2735.50000    0.04744
2736.00000    0.04694
2736.50000    0.04631
2737.00000    0.04551
2737.50000    0.04443
2738.00000    0.04297
2738.50000    0.04098
2739.00000    0.03828
2739.50000    0.03466
2740.00000    0.02992
2740.50000    0.02386
2741.00000    0.01631
2741.50000    0.00716
2742.00000   -0.00364
2742.50000   -0.01604
2743.00000   -0.02993
2743.50000   -0.04508
2744.00000   -0.06117
2744.50000   -0.07782
2745.00000   -0.09458
2745.50000   -0.11098
2746.00000   -0.12653
2746.50000   -0.14076
2747.00000   -0.15326
2747.50000   -0.16368
2748.00000   -0.17179
2748.50000   -0.17743
2749.00000   -0.18060
2749.50000   -0.18140
2750.00000   -0.18003
2750.50000   -0.17681
2751.00000   -0.17213
2751.50000   -0.16644
2752.00000   -0.16020
2752.50000   -0.15390
2753.00000   -0.14796
2753.50000   -0.14278
2754.00000   -0.13868
2754.50000   -0.13587
2755.00000   -0.13448
2755.50000   -0.13450
2756.00000   -0.13583
2756.50000   -0.13827
2757.00000   -0.14152
2757.50000   -0.14519
2758.00000   -0.14885
2758.50000   -0.15203
2759.00000   -0.15423
2759.50000   -0.15499
2760.00000   -0.15387
2760.50000   -0.15048
2761.00000   -0.14453
2761.50000   -0.13579
2762.00000   -0.12416
2762.50000   -0.10965
2763.00000   -0.09238
2763.50000   -0.07259
2764.00000   -0.05062
2764.50000   -0.02690
2765.00000   -0.00195
2765.50000    0.02367
2766.00000    0.04936
2766.50000    0.07454
2767.00000    0.09862
2767.50000    0.12108
2768.00000    0.14146
2768.50000    0.15939
2769.00000    0.17459
2769.50000    0.18692
2770.00000    0.19633
2770.50000    0.20288
2771.00000    0.20674
2771.50000    0.20814
2772.00000    0.20740
2772.50000    0.20485
2773.00000    0.20086
2773.50000    0.19578
2774.00000    0.18995
2774.50000    0.18366
2775.00000    0.17712
2775.50000    0.17051
2776.00000    0.16392
2776.50000    0.15738
2777.00000    0.15086
2777.50000    0.14430
2778.00000    0.13759
2778.50000    0.13060
2779.00000    0.12322
2779.50000    0.11532
2780.00000    0.10683
2780.50000    0.09769
2781.00000    0.08787
2781.50000    0.07739
2782.00000    0.06631
2782.50000    0.05472
2783.00000    0.04271
2783.50000    0.03042
2784.00000    0.01798
2784.50000    0.00551
2785.00000   -0.00687
2785.50000   -0.01905
2786.00000   -0.03095
2786.50000   -0.04250
2787.00000   -0.05364
2787.50000   -0.06435
2788.00000   -0.07460
2788.50000   -0.08437
2789.00000   -0.09365
2789.50000   -0.10244
2790.00000   -0.11073
2790.50000   -0.11848
2791.00000   -0.12569
2791.50000   -0.13231
2792.00000   -0.13831
2792.50000   -0.14364
2793.00000   -0.14825
2793.50000   -0.15208
2794.00000   -0.15507
2794.50000   -0.15714
2795.00000   -0.15822
2795.50000   -0.15824
2796.00000   -0.15711
2796.50000   -0.15474
2797.00000   -0.15105
2797.50000   -0.14596
2798.00000   -0.13937
2798.50000   -0.13123
2799.00000   -0.12148
2799.50000   -0.11009
2800.00000   -0.09707
2800.50000   -0.08245
2801.00000   -0.06633
2801.50000   -0.04885
2802.00000   -0.03021
2802.50000   -0.01066
2803.00000    0.00947
2803.50000    0.02982
2804.00000    0.04998
2804.50000    0.06949
2805.00000    0.08789
2805.50000    0.10468
2806.00000    0.11941
2806.50000    0.13164
2807.00000    0.14096
2807.50000    0.14705
2808.00000    0.14964
2808.50000    0.14858
2809.00000    0.14379
2809.50000    0.13530
2810.00000    0.12325
2810.50000    0.10786
2811.00000    0.08947
2811.50000    0.06846
2812.00000    0.04532
2812.50000    0.02056
2813.00000   -0.00526
2813.50000   -0.03156
2814.00000   -0.05777
2814.50000   -0.08335
2815.00000   -0.10779
2815.50000   -0.13062
2816.00000   -0.15143
2816.50000   -0.16992
2817.00000   -0.18581
2817.50000   -0.19894
2818.00000   -0.20921
2818.50000   -0.21661
2819.00000   -0.22119
2819.50000   -0.22306
2820.00000   -0.22239
2820.50000   -0.21938
2821.00000   -0.21427
2821.50000   -0.20731
2822.00000   -0.19877
2822.50000   -0.18891
2823.00000   -0.17796
2823.50000   -0.16615
2824.00000   -0.15368
2824.50000   -0.14069
2825.00000   -0.12732
2825.50000   -0.11365
2826.00000   -0.09972
2826.50000   -0.08555
2827.00000   -0.07113
2827.50000   -0.05642
2828.00000   -0.04136
2828.50000   -0.02591
2829.00000   -0.00999
2829.50000    0.00642
2830.00000    0.02334
2830.50000    0.04076
2831.00000    0.05863
2831.50000    0.07685
2832.00000    0.09527
2832.50000    0.11373
2833.00000    0.13199
2833.50000    0.14979
2834.00000    0.16684
2834.50000    0.18286
2835.00000    0.19753
2835.50000    0.21056
2836.00000    0.22169
2836.50000    0.23069
2837.00000    0.23737
2837.50000    0.24161
2838.00000    0.24333
2838.50000    0.24253
2839.00000    0.23925
2839.50000    0.23360
2840.00000    0.22574
2840.50000    0.21584
2841.00000    0.20412
2841.50000    0.19082
2842.00000    0.17615
2842.50000    0.16035
2843.00000    0.14364
2843.50000    0.12620
2844.00000    0.10822
2844.50000    0.08986
2845.00000    0.07129
2845.50000    0.05264
2846.00000    0.03406
2846.50000    0.01571
2847.00000   -0.00226
2847.50000   -0.01967
2848.00000   -0.03632
2848.50000   -0.05201
2849.00000   -0.06653
2849.50000   -0.07967
2850.00000   -0.09122
2850.50000   -0.10099
2851.00000   -0.10883
2851.50000   -0.11463
2852.00000   -0.11830
2852.50000   -0.11984
2853.00000   -0.11928
2853.50000   -0.11671
2854.00000   -0.11229
2854.50000   -0.10619
2855.00000   -0.09863
2855.50000   -0.08985
2856.00000   -0.08010
2856.50000   -0.06961
2857.00000   -0.05862
2857.50000   -0.04731
2858.00000   -0.03586
2858.50000   -0.02437
2859.00000   -0.01293
2859.50000   -0.00158
2860.00000    0.00967
2860.50000    0.02084
2861.00000    0.03196
2861.50000    0.04309
2862.00000    0.05426
2862.50000    0.06552
2863.00000    0.07687
2863.50000    0.08832
2864.00000    0.09982
2864.50000    0.11130
2865.00000    0.12268
2865.50000    0.13382
2866.00000    0.14458
2866.50000    0.15478
2867.00000    0.16423
2867.50000    0.17273
2868.00000    0.18008
2868.50000    0.18608
2869.00000    0.19052
2869.50000    0.19323
2870.00000    0.19401
2870.50000    0.19274
2871.00000    0.18927
2871.50000    0.18352
2872.00000    0.17542
2872.50000    0.16495
2873.00000    0.15213
2873.50000    0.13703
2874.00000    0.11977
2874.50000    0.10050
2875.00000    0.07945
2875.50000    0.05688
2876.00000    0.03309
2876.50000    0.00843
2877.00000   -0.01674
2877.50000   -0.04202
2878.00000   -0.06702
2878.50000   -0.09134
2879.00000   -0.11461
2879.50000   -0.13646
2880.00000   -0.15658
2880.50000   -0.17470
2881.00000   -0.19059
2881.50000   -0.20409
2882.00000   -0.21509
2882.50000   -0.22354
2883.00000   -0.22944
2883.50000   -0.23284
2884.00000   -0.23383
2884.50000   -0.23253
2885.00000   -0.22909
2885.50000   -0.22366
2886.00000   -0.21643
2886.50000   -0.20755
2887.00000   -0.19722
2887.50000   -0.18559
2888.00000   -0.17281
2888.50000   -0.15904
2889.00000   -0.14441
2889.50000   -0.12905
2890.00000   -0.11307
2890.50000   -0.09659
2891.00000   -0.07971
2891.50000   -0.06251
2892.00000   -0.04509
2892.50000   -0.02750
2893.00000   -0.00981
2893.50000    0.00794
2894.00000    0.02572
2894.50000    0.04352
2895.00000    0.06134
2895.50000    0.07918
2896.00000    0.09707
2896.50000    0.11502
2897.00000    0.13305
2897.50000    0.15116
2898.00000    0.16936
2898.50000    0.18764
2899.00000    0.20596
2899.50000    0.22430
