1200.50000    0.03166
1201.00000    0.02684
1201.50000    0.02196
1202.00000    0.01695
1202.50000    0.01177
1203.00000    0.00637
1203.50000    0.00071
1204.00000   -0.00521
1204.50000   -0.01139
1205.00000   -0.01780
1205.50000   -0.02436
1206.00000   -0.03099
1206.50000   -0.03757
1207.00000   -0.04394
1207.50000   -0.04994
1208.00000   -0.05538
1208.50000   -0.06007
1209.00000   -0.06381
1209.50000   -0.06639
1210.00000   -0.06763
1210.50000   -0.06736
1211.00000   -0.06545
1211.50000   -0.06179
1212.00000   -0.05631
1212.50000   -0.04901
1213.00000   -0.03992
1213.50000   -0.02913
1214.00000   -0.01677
1214.50000   -0.00305
1215.00000    0.01181
1215.50000    0.02751
1216.00000    0.04375
1216.50000    0.06019
1217.00000    0.07646
1217.50000    0.09220
1218.00000    0.10706
1218.50000    0.12068
1219.00000    0.13276
1219.50000    0.14301
1220.00000    0.15120
1220.50000    0.15715
1221.00000    0.16074
1221.50000    0.16191
1222.00000    0.16064
1222.50000    0.15700
1223.00000    0.15111
1223.50000    0.14312
1224.00000    0.13324
1224.50000    0.12171
1225.00000    0.10881
1225.50000    0.09482
1226.00000    0.08003
1226.50000    0.06474
1227.00000    0.04922
1227.50000    0.03372
1228.00000    0.01848
1228.50000    0.00370
1229.00000   -0.01047
1229.50000   -0.02389
1230.00000   -0.03648
1230.50000   -0.04818
1231.00000   -0.05896
1231.50000   -0.06883
1232.00000   -0.07781
1232.50000   -0.08594
1233.00000   -0.09327
1233.50000   -0.09986
1234.00000   -0.10577
1234.50000   -0.11105
1235.00000   -0.11574
1235.50000   -0.11989
1236.00000   -0.12352
1236.50000   -0.12664
1237.00000   -0.12925
1237.50000   -0.13134
1238.00000   -0.13288
1238.50000   -0.13385
1239.00000   -0.13422
1239.50000   -0.13394
1240.00000   -0.13296
1240.50000   -0.13126
1241.00000   -0.12878
1241.50000   -0.12550
1242.00000   -0.12136
1242.50000   -0.11635
1243.00000   -0.11043
1243.50000   -0.10358
1244.00000   -0.09579
1244.50000   -0.08704
1245.00000   -0.07734
1245.50000   -0.06669
1246.00000   -0.05511
1246.50000   -0.04263
1247.00000   -0.02929
1247.50000   -0.01517
1248.00000   -0.00034
1248.50000    0.01508
1249.00000    0.03097
1249.50000    0.04717
1250.00000    0.06350
1250.50000    0.07976
1251.00000    0.09572
1251.50000    0.11115
1252.00000    0.12578
1252.50000    0.13937
1253.00000    0.15165
1253.50000    0.16238
1254.00000    0.17132
1254.50000    0.17826
1255.00000    0.18305
1255.50000    0.18555
1256.00000    0.18566
1256.50000    0.18336
1257.00000    0.17867
1257.50000    0.17165
1258.00000    0.16244
1258.50000    0.15121
1259.00000    0.13819
1259.50000    0.12362
1260.00000    0.10782
1260.50000    0.09107
1261.00000    0.07372
1261.50000    0.05609
1262.00000    0.03849
1262.50000    0.02121
1263.00000    0.00454
1263.50000   -0.01129
1264.00000   -0.02608
1264.50000   -0.03966
1265.00000   -0.05192
1265.50000   -0.06278
1266.00000   -0.07219
1266.50000   -0.08015
1267.00000   -0.08669
1267.50000   -0.09186
1268.00000   -0.09574
1268.50000   -0.09841
1269.00000   -0.09996
1269.50000   -0.10049
1270.00000   -0.10009
1270.50000   -0.09886
1271.00000   -0.09686
1271.50000   -0.09418
1272.00000   -0.09087
1272.50000   -0.08700
1273.00000   -0.08262
1273.50000   -0.07778
1274.00000   -0.07254
1274.50000   -0.06695
1275.00000   -0.06108
1275.50000   -0.05500
1276.00000   -0.04881
1276.50000   -0.04260
1277.00000   -0.03648
1277.50000   -0.03060
1278.00000   -0.02506
1278.50000   -0.02002
1279.00000   -0.01562
1279.50000   -0.01198
1280.00000   -0.00923
1280.50000   -0.00749
1281.00000   -0.00684
1281.50000   -0.00736
1282.00000   -0.00908
1282.50000   -0.01203
1283.00000   -0.01618
1283.50000   -0.02148
1284.00000   -0.02787
1284.50000   -0.03523
1285.00000   -0.04342
1285.50000   -0.05230
1286.00000   -0.06169
1286.50000   -0.07140
1287.00000   -0.08123
1287.50000   -0.09098
1288.00000   -0.10045
1288.50000   -0.10944
1289.00000   -0.11774
1289.50000   -0.12518
1290.00000   -0.13157
1290.50000   -0.13675
1291.00000   -0.14058
1291.50000   -0.14290
1292.00000   -0.14362
1292.50000   -0.14261
1293.00000   -0.13981
1293.50000   -0.13516
1294.00000   -0.12861
1294.50000   -0.12017
1295.00000   -0.10985
1295.50000   -0.09772
1296.00000   -0.08385
1296.50000   -0.06839
1297.00000   -0.05149
1297.50000   -0.03336
1298.00000   -0.01425
1298.50000    0.00556
1299.00000    0.02577
1299.50000    0.04602
1300.00000    0.06598
1300.50000    0.08526
1301.00000    0.10349
1301.50000    0.12030
1302.00000    0.13536
1302.50000    0.14834
1303.00000    0.15896
1303.50000    0.16701
1304.00000    0.17230
1304.50000    0.17473
1305.00000    0.17427
1305.50000    0.17093
1306.00000    0.16482
1306.50000    0.15609
1307.00000    0.14496
1307.50000    0.13171
1308.00000    0.11664
1308.50000    0.10012
1309.00000    0.08251
1309.50000    0.06420
1310.00000    0.04559
1310.50000    0.02707
1311.00000    0.00902
1311.50000   -0.00820
1312.00000   -0.02426
1312.50000   -0.03885
1313.00000   -0.05168
1313.50000   -0.06250
1314.00000   -0.07109
1314.50000   -0.07725
1315.00000   -0.08080
1315.50000   -0.08157
1316.00000   -0.07944
1316.50000   -0.07428
1317.00000   -0.06597
1317.50000   -0.05442
1318.00000   -0.03955
1318.50000   -0.02128
1319.00000    0.00045
1319.50000    0.02566
1320.00000    0.05440
1320.50000    0.08666
1321.00000    0.12244
1321.50000    0.16171
1322.00000    0.20441
1322.50000    0.25050
1323.00000    0.29991
1323.50000    0.35256
1324.00000    0.40838
1324.50000    0.46730
1325.00000    0.52926
1325.50000    0.59422
1326.00000    0.66217
1326.50000    0.73310
1327.00000    0.80705
1327.50000    0.88408
1328.00000    0.96427
1328.50000    1.04774
1329.00000    1.13459
1329.50000    1.22497
1330.00000    1.31901
1330.50000    1.41681
1331.00000    1.51847
1331.50000    1.62404
1332.00000    1.73350
1332.50000    1.84679
1333.00000    1.96375
1333.50000    2.08415
1334.00000    2.20765
1334.50000    2.33383
1335.00000    2.46215
1335.50000    2.59198
1336.00000    2.72259
1336.50000    2.85316
1337.00000    2.98281
1337.50000    3.11059
1338.00000    3.23550
1338.50000    3.35651
1339.00000    3.47262
1339.50000    3.58280
1340.00000    3.68610
1340.50000    3.78161
1341.00000    3.86851
1341.50000    3.94605
1342.00000    4.01363
1342.50000    4.07075
1343.00000    4.11703
1343.50000    4.15226
1344.00000    4.17634
1344.50000    4.18933
1345.00000    4.19140
1345.50000    4.18288
1346.00000    4.16418
1346.50000    4.13583
1347.00000    4.09845
1347.50000    4.05273
1348.00000    3.99938
1348.50000    3.93919
1349.00000    3.87292
1349.50000    3.80135
1350.00000    3.72523
1350.50000    3.64527
1351.00000    3.56214
1351.50000    3.47648
1352.00000    3.38883
1352.50000    3.29971
1353.00000    3.20954
1353.50000    3.11871
1354.00000    3.02754
1354.50000    2.93631
1355.00000    2.84525
1355.50000    2.75456
1356.00000    2.66441
1356.50000    2.57495
1357.00000    2.48634
1357.50000    2.39869
1358.00000    2.31217
1358.50000    2.22690
1359.00000    2.14303
1359.50000    2.06072
1360.00000    1.98010
1360.50000    1.90134
1361.00000    1.82458
1361.50000    1.74996
1362.00000    1.67759
1362.50000    1.60758
1363.00000    1.54000
1363.50000    1.47490
1364.00000    1.41230
1364.50000    1.35217
1365.00000    1.29446
1365.50000    1.23907
1366.00000    1.18588
1366.50000    1.13474
1367.00000    1.08547
1367.50000    1.03787
1368.00000    0.99174
1368.50000    0.94688
1369.00000    0.90309
1369.50000    0.86017
1370.00000    0.81795
1370.50000    0.77629
1371.00000    0.73506
1371.50000    0.69419
1372.00000    0.65362
1372.50000    0.61335
1373.00000    0.57339
1373.50000    0.53382
1374.00000    0.49472
1374.50000    0.45622
1375.00000    0.41847
1375.50000    0.38163
1376.00000    0.34588
1376.50000    0.31141
1377.00000    0.27839
1377.50000    0.24700
1378.00000    0.21740
1378.50000    0.18974
1379.00000    0.16414
1379.50000    0.14069
1380.00000    0.11945
1380.50000    0.10047
1381.00000    0.08372
1381.50000    0.06920
1382.00000    0.05682
1382.50000    0.04650
1383.00000    0.03811
1383.50000    0.03149
1384.00000    0.02648
1384.50000    0.02287
1385.00000    0.02047
1385.50000    0.01904
1386.00000    0.01836
1386.50000    0.01821
1387.00000    0.01836
1387.50000    0.01859
1388.00000    0.01869
1388.50000    0.01848
1389.00000    0.01780
1389.50000    0.01649
1390.00000    0.01447
1390.50000    0.01164
1391.00000    0.00796
1391.50000    0.00345
1392.00000   -0.00188
1392.50000   -0.00794
1393.00000   -0.01462
1393.50000   -0.02178
1394.00000   -0.02924
1394.50000   -0.03680
1395.00000   -0.04425
1395.50000   -0.05136
1396.00000   -0.05790
1396.50000   -0.06366
1397.00000   -0.06843
1397.50000   -0.07204
1398.00000   -0.07435
1398.50000   -0.07526
1399.00000   -0.07471
1399.50000   -0.07271
1400.00000   -0.06929
1400.50000   -0.06456
1401.00000   -0.05867
1401.50000   -0.05181
1402.00000   -0.04423
1402.50000   -0.03618
1403.00000   -0.02796
1403.50000   -0.01985
1404.00000   -0.01215
1404.50000   -0.00514
1405.00000    0.00093
1405.50000    0.00584
1406.00000    0.00941
1406.50000    0.01151
1407.00000    0.01205
1407.50000    0.01101
1408.00000    0.00841
1408.50000    0.00432
1409.00000   -0.00116
1409.50000   -0.00786
1410.00000   -0.01562
1410.50000   -0.02424
1411.00000   -0.03351
1411.50000   -0.04323
1412.00000   -0.05319
1412.50000   -0.06321
1413.00000   -0.07313
1413.50000   -0.08279
1414.00000   -0.09209
1414.50000   -0.10093
1415.00000   -0.10924
1415.50000   -0.11698
1416.00000   -0.12412
1416.50000   -0.13066
1417.00000   -0.13659
1417.50000   -0.14192
1418.00000   -0.14666
1418.50000   -0.15081
1419.00000   -0.15437
1419.50000   -0.15734
1420.00000   -0.15970
1420.50000   -0.16143
1421.00000   -0.16250
1421.50000   -0.16287
1422.00000   -0.16249
1422.50000   -0.16133
1423.00000   -0.15933
1423.50000   -0.15644
1424.00000   -0.15262
1424.50000   -0.14783
1425.00000   -0.14205
1425.50000   -0.13523
1426.00000   -0.12738
1426.50000   -0.11848
1427.00000   -0.10854
1427.50000   -0.09757
1428.00000   -0.08561
1428.50000   -0.07270
1429.00000   -0.05891
1429.50000   -0.04431
1430.00000   -0.02901
1430.50000   -0.01314
1431.00000    0.00316
1431.50000    0.01971
1432.00000    0.03631
1432.50000    0.05274
1433.00000    0.06875
1433.50000    0.08409
1434.00000    0.09849
1434.50000    0.11168
1435.00000    0.12340
1435.50000    0.13340
1436.00000    0.14146
1436.50000    0.14741
1437.00000    0.15110
1437.50000    0.15246
1438.00000    0.15148
1438.50000    0.14821
1439.00000    0.14278
1439.50000    0.13539
1440.00000    0.12631
1440.50000    0.11586
1441.00000    0.10444
1441.50000    0.09246
1442.00000    0.08036
1442.50000    0.06860
1443.00000    0.05760
1443.50000    0.04776
1444.00000    0.03944
1444.50000    0.03291
1445.00000    0.02837
1445.50000    0.02596
1446.00000    0.02569
1446.50000    0.02748
1447.00000    0.03119
1447.50000    0.03655
1448.00000    0.04324
1448.50000    0.05089
1449.00000    0.05906
1449.50000    0.06730
1450.00000    0.07516
1450.50000    0.08221
1451.00000    0.08803
1451.50000    0.09227
1452.00000    0.09465
1452.50000    0.09496
1453.00000    0.09307
1453.50000    0.08894
1454.00000    0.08260
1454.50000    0.07418
1455.00000    0.06387
1455.50000    0.05191
1456.00000    0.03862
1456.50000    0.02433
1457.00000    0.00940
1457.50000   -0.00580
1458.00000   -0.02088
1458.50000   -0.03548
1459.00000   -0.04926
1459.50000   -0.06191
1460.00000   -0.07315
1460.50000   -0.08273
1461.00000   -0.09045
1461.50000   -0.09614
1462.00000   -0.09968
1462.50000   -0.10099
1463.00000   -0.10001
1463.50000   -0.09675
1464.00000   -0.09124
1464.50000   -0.08354
1465.00000   -0.07376
1465.50000   -0.06205
1466.00000   -0.04860
1466.50000   -0.03362
1467.00000   -0.01738
1467.50000   -0.00016
1468.00000    0.01770
1468.50000    0.03586
1469.00000    0.05395
1469.50000    0.07159
1470.00000    0.08839
1470.50000    0.10398
1471.00000    0.11800
1471.50000    0.13014
1472.00000    0.14010
1472.50000    0.14767
1473.00000    0.15268
1473.50000    0.15503
1474.00000    0.15470
1474.50000    0.15173
1475.00000    0.14623
1475.50000    0.13841
1476.00000    0.12849
1476.50000    0.11680
1477.00000    0.10366
1477.50000    0.08946
1478.00000    0.07459
1478.50000    0.05944
1479.00000    0.04441
1479.50000    0.02987
1480.00000    0.01615
1480.50000    0.00357
1481.00000   -0.00763
1481.50000   -0.01724
1482.00000   -0.02511
1482.50000   -0.03115
1483.00000   -0.03533
1483.50000   -0.03767
1484.00000   -0.03824
1484.50000   -0.03718
1485.00000   -0.03464
1485.50000   -0.03084
1486.00000   -0.02602
1486.50000   -0.02045
1487.00000   -0.01443
1487.50000   -0.00826
1488.00000   -0.00226
1488.50000    0.00325
1489.00000    0.00799
1489.50000    0.01165
1490.00000    0.01400
1490.50000    0.01480
1491.00000    0.01389
1491.50000    0.01116
1492.00000    0.00656
1492.50000    0.00009
1493.00000   -0.00816
1493.50000   -0.01804
1494.00000   -0.02933
1494.50000   -0.04175
1495.00000   -0.05498
1495.50000   -0.06865
1496.00000   -0.08236
1496.50000   -0.09569
1497.00000   -0.10825
1497.50000   -0.11965
1498.00000   -0.12952
1498.50000   -0.13758
1499.00000   -0.14358
1499.50000   -0.14736
1500.00000   -0.14882
1500.50000   -0.14798
1501.00000   -0.14491
1501.50000   -0.13977
1502.00000   -0.13280
1502.50000   -0.12429
1503.00000   -0.11458
1503.50000   -0.10403
1504.00000   -0.09302
1504.50000   -0.08193
1505.00000   -0.07111
1505.50000   -0.06088
1506.00000   -0.05152
1506.50000   -0.04324
1507.00000   -0.03620
1507.50000   -0.03051
1508.00000   -0.02617
1508.50000   -0.02317
1509.00000   -0.02142
1509.50000   -0.02076
1510.00000   -0.02103
1510.50000   -0.02202
1511.00000   -0.02350
1511.50000   -0.02523
1512.00000   -0.02697
1512.50000   -0.02850
1513.00000   -0.02963
1513.50000   -0.03015
1514.00000   -0.02993
1514.50000   -0.02885
1515.00000   -0.02682
1515.50000   -0.02381
1516.00000   -0.01982
1516.50000   -0.01487
1517.00000   -0.00905
1517.50000   -0.00246
1518.00000    0.00476
1518.50000    0.01242
1519.00000    0.02032
1519.50000    0.02824
1520.00000    0.03593
1520.50000    0.04315
1521.00000    0.04963
1521.50000    0.05512
1522.00000    0.05938
1522.50000    0.06220
1523.00000    0.06340
1523.50000    0.06283
1524.00000    0.06041
1524.50000    0.05610
1525.00000    0.04994
1525.50000    0.04200
1526.00000    0.03245
1526.50000    0.02149
1527.00000    0.00940
1527.50000   -0.00353
1528.00000   -0.01694
1528.50000   -0.03047
1529.00000   -0.04375
1529.50000   -0.05641
1530.00000   -0.06812
1530.50000   -0.07857
1531.00000   -0.08749
1531.50000   -0.09470
1532.00000   -0.10006
1532.50000   -0.10349
1533.00000   -0.10502
1533.50000   -0.10470
1534.00000   -0.10267
1534.50000   -0.09910
1535.00000   -0.09421
1535.50000   -0.08823
1536.00000   -0.08139
1536.50000   -0.07393
1537.00000   -0.06607
1537.50000   -0.05799
1538.00000   -0.04983
1538.50000   -0.04170
1539.00000   -0.03366
1539.50000   -0.02572
1540.00000   -0.01785
1540.50000   -0.01002
1541.00000   -0.00215
1541.50000    0.00585
1542.00000    0.01403
1542.50000    0.02247
1543.00000    0.03119
1543.50000    0.04017
1544.00000    0.04935
1544.50000    0.05863
1545.00000    0.06785
1545.50000    0.07680
1546.00000    0.08525
1546.50000    0.09290
1547.00000    0.09950
1547.50000    0.10473
1548.00000    0.10835
1548.50000    0.11011
1549.00000    0.10982
1549.50000    0.10736
1550.00000    0.10267
1550.50000    0.09577
1551.00000    0.08676
1551.50000    0.07585
1552.00000    0.06329
1552.50000    0.04943
1553.00000    0.03467
1553.50000    0.01946
1554.00000    0.00429
1554.50000   -0.01036
1555.00000   -0.02400
1555.50000   -0.03616
1556.00000   -0.04643
1556.50000   -0.05443
1557.00000   -0.05987
1557.50000   -0.06251
1558.00000   -0.06219
1558.50000   -0.05885
1559.00000   -0.05247
1559.50000   -0.04312
1560.00000   -0.03090
1560.50000   -0.01599
1561.00000    0.00144
1561.50000    0.02117
1562.00000    0.04298
1562.50000    0.06669
1563.00000    0.09211
1563.50000    0.11911
1564.00000    0.14758
1564.50000    0.17748
1565.00000    0.20882
1565.50000    0.24168
1566.00000    0.27618
1566.50000    0.31253
1567.00000    0.35095
1567.50000    0.39176
1568.00000    0.43529
1568.50000    0.48195
1569.00000    0.53215
1569.50000    0.58634
1570.00000    0.64501
1570.50000    0.70866
1571.00000    0.77778
1571.50000    0.85291
1572.00000    0.93455
1572.50000    1.02319
1573.00000    1.11933
1573.50000    1.22342
1574.00000    1.33588
1574.50000    1.45708
1575.00000    1.58733
1575.50000    1.72687
1576.00000    1.87584
1576.50000    2.03432
1577.00000    2.20224
1577.50000    2.37943
1578.00000    2.56559
1578.50000    2.76027
1579.00000    2.96288
1579.50000    3.17270
1580.00000    3.38884
1580.50000    3.61027
1581.00000    3.83583
1581.50000    4.06421
1582.00000    4.29400
1582.50000    4.52365
1583.00000    4.75154
1583.50000    4.97598
1584.00000    5.19521
1584.50000    5.40744
1585.00000    5.61089
1585.50000    5.80377
1586.00000    5.98436
1586.50000    6.15099
1587.00000    6.30210
1587.50000    6.43625
1588.00000    6.55215
1588.50000    6.64868
1589.00000    6.72491
1589.50000    6.78013
1590.00000    6.81385
1590.50000    6.82584
1591.00000    6.81607
1591.50000    6.78481
1592.00000    6.73255
1592.50000    6.66002
1593.00000    6.56820
1593.50000    6.45826
1594.00000    6.33159
1594.50000    6.18973
1595.00000    6.03437
1595.50000    5.86730
1596.00000    5.69042
1596.50000    5.50561
1597.00000    5.31481
1597.50000    5.11990
1598.00000    4.92269
1598.50000    4.72490
1599.00000    4.52813
1599.50000    4.33381
1600.00000    4.14320
1600.50000    3.95739
1601.00000    3.77726
1601.50000    3.60350
1602.00000    3.43661
1602.50000    3.27691
1603.00000    3.12457
1603.50000    2.97960
1604.00000    2.84188
1604.50000    2.71120
1605.00000    2.58727
1605.50000    2.46976
1606.00000    2.35829
1606.50000    2.25248
1607.00000    2.15199
1607.50000    2.05648
1608.00000    1.96567
1608.50000    1.87933
1609.00000    1.79727
1609.50000    1.71939
1610.00000    1.64564
1610.50000    1.57601
1611.00000    1.51055
1611.50000    1.44932
1612.00000    1.39244
1612.50000    1.34000
1613.00000    1.29211
1613.50000    1.24886
1614.00000    1.21031
1614.50000    1.17649
1615.00000    1.14738
1615.50000    1.12292
1616.00000    1.10301
1616.50000    1.08747
1617.00000    1.07610
1617.50000    1.06864
1618.00000    1.06479
1618.50000    1.06422
1619.00000    1.06656
1619.50000    1.07142
1620.00000    1.07839
1620.50000    1.08705
1621.00000    1.09697
1621.50000    1.10772
1622.00000    1.11887
1622.50000    1.13000
1623.00000    1.14068
1623.50000    1.15050
1624.00000    1.15905
1624.50000    1.16595
1625.00000    1.17079
1625.50000    1.17322
1626.00000    1.17287
1626.50000    1.16942
1627.00000    1.16254
1627.50000    1.15197
1628.00000    1.13746
1628.50000    1.11882
1629.00000    1.09590
1629.50000    1.06863
1630.00000    1.03700
1630.50000    1.00105
1631.00000    0.96092
1631.50000    0.91684
1632.00000    0.86909
1632.50000    0.81805
1633.00000    0.76415
1633.50000    0.70790
1634.00000    0.64987
1634.50000    0.59064
1635.00000    0.53084
1635.50000    0.47110
1636.00000    0.41204
1636.50000    0.35427
1637.00000    0.29835
1637.50000    0.24479
1638.00000    0.19403
1638.50000    0.14643
1639.00000    0.10230
1639.50000    0.06183
1640.00000    0.02516
1640.50000   -0.00766
1641.00000   -0.03665
1641.50000   -0.06190
1642.00000   -0.08355
1642.50000   -0.10178
1643.00000   -0.11679
1643.50000   -0.12882
1644.00000   -0.13809
1644.50000   -0.14484
1645.00000   -0.14929
1645.50000   -0.15164
1646.00000   -0.15206
1646.50000   -0.15070
1647.00000   -0.14769
1647.50000   -0.14313
1648.00000   -0.13712
1648.50000   -0.12972
1649.00000   -0.12102
1649.50000   -0.11109
1650.00000   -0.10002
1650.50000   -0.08792
1651.00000   -0.07494
1651.50000   -0.06122
1652.00000   -0.04697
1652.50000   -0.03241
1653.00000   -0.01780
1653.50000   -0.00340
1654.00000    0.01048
1654.50000    0.02355
1655.00000    0.03550
1655.50000    0.04605
1656.00000    0.05494
1656.50000    0.06194
1657.00000    0.06687
1657.50000    0.06962
1658.00000    0.07013
1658.50000    0.06841
1659.00000    0.06458
1659.50000    0.05880
1660.00000    0.05133
1660.50000    0.04247
1661.00000    0.03261
1661.50000    0.02217
1662.00000    0.01161
1662.50000    0.00139
1663.00000   -0.00801
1663.50000   -0.01614
1664.00000   -0.02258
1664.50000   -0.02698
1665.00000   -0.02903
1665.50000   -0.02853
1666.00000   -0.02534
1666.50000   -0.01942
1667.00000   -0.01084
1667.50000    0.00024
1668.00000    0.01359
1668.50000    0.02888
1669.00000    0.04570
1669.50000    0.06363
1670.00000    0.08216
1670.50000    0.10080
1671.00000    0.11904
1671.50000    0.13639
1672.00000    0.15241
1672.50000    0.16670
1673.00000    0.17892
1673.50000    0.18881
1674.00000    0.19620
1674.50000    0.20099
1675.00000    0.20318
1675.50000    0.20283
1676.00000    0.20008
1676.50000    0.19514
1677.00000    0.18825
1677.50000    0.17971
1678.00000    0.16982
1678.50000    0.15890
1679.00000    0.14725
1679.50000    0.13516
1680.00000    0.12291
1680.50000    0.11069
1681.00000    0.09869
1681.50000    0.08702
1682.00000    0.07578
1682.50000    0.06497
1683.00000    0.05459
1683.50000    0.04457
1684.00000    0.03485
1684.50000    0.02531
1685.00000    0.01585
1685.50000    0.00634
1686.00000   -0.00329
1686.50000   -0.01315
1687.00000   -0.02329
1687.50000   -0.03375
1688.00000   -0.04454
1688.50000   -0.05562
1689.00000   -0.06696
1689.50000   -0.07848
1690.00000   -0.09009
1690.50000   -0.10170
1691.00000   -0.11320
1691.50000   -0.12449
1692.00000   -0.13546
1692.50000   -0.14605
1693.00000   -0.15619
1693.50000   -0.16582
1694.00000   -0.17493
1694.50000   -0.18351
1695.00000   -0.19156
1695.50000   -0.19912
1696.00000   -0.20623
1696.50000   -0.21291
1697.00000   -0.21921
1697.50000   -0.22515
1698.00000   -0.23076
1698.50000   -0.23602
1699.00000   -0.24093
1699.50000   -0.24544
1700.00000   -0.24950
1700.50000   -0.25303
1701.00000   -0.25594
1701.50000   -0.25813
1702.00000   -0.25950
1702.50000   -0.25994
1703.00000   -0.25937
1703.50000   -0.25769
1704.00000   -0.25484
1704.50000   -0.25078
1705.00000   -0.24546
1705.50000   -0.23890
1706.00000   -0.23110
1706.50000   -0.22210
1707.00000   -0.21197
1707.50000   -0.20076
1708.00000   -0.18856
1708.50000   -0.17543
1709.00000   -0.16148
1709.50000   -0.14677
1710.00000   -0.13137
1710.50000   -0.11534
1711.00000   -0.09875
1711.50000   -0.08162
1712.00000   -0.06401
1712.50000   -0.04593
1713.00000   -0.02743
1713.50000   -0.00854
1714.00000    0.01070
1714.50000    0.03022
1715.00000    0.04994
1715.50000    0.06976
1716.00000    0.08955
1716.50000    0.10916
1717.00000    0.12841
1717.50000    0.14708
1718.00000    0.16495
1718.50000    0.18177
1719.00000    0.19727
1719.50000    0.21118
1720.00000    0.22323
1720.50000    0.23314
1721.00000    0.24069
1721.50000    0.24562
1722.00000    0.24776
1722.50000    0.24696
1723.00000    0.24310
1723.50000    0.23615
1724.00000    0.22613
1724.50000    0.21311
1725.00000    0.19724
1725.50000    0.17875
1726.00000    0.15793
1726.50000    0.13512
1727.00000    0.11074
1727.50000    0.08525
1728.00000    0.05917
1728.50000    0.03302
1729.00000    0.00738
1729.50000   -0.01721
1730.00000   -0.04017
1730.50000   -0.06099
1731.00000   -0.07919
1731.50000   -0.09432
1732.00000   -0.10602
1732.50000   -0.11403
1733.00000   -0.11815
1733.50000   -0.11829
1734.00000   -0.11448
1734.50000   -0.10685
1735.00000   -0.09562
1735.50000   -0.08112
1736.00000   -0.06378
1736.50000   -0.04410
1737.00000   -0.02264
1737.50000   -0.00001
1738.00000    0.02316
1738.50000    0.04623
1739.00000    0.06856
1739.50000    0.08957
1740.00000    0.10871
1740.50000    0.12553
1741.00000    0.13963
1741.50000    0.15072
1742.00000    0.15861
1742.50000    0.16321
1743.00000    0.16454
1743.50000    0.16273
1744.00000    0.15797
1744.50000    0.15058
1745.00000    0.14092
1745.50000    0.12942
1746.00000    0.11654
1746.50000    0.10277
1747.00000    0.08861
1747.50000    0.07455
1748.00000    0.06106
1748.50000    0.04857
1749.00000    0.03744
1749.50000    0.02801
1750.00000    0.02051
1750.50000    0.01514
1751.00000    0.01199
1751.50000    0.01110
1752.00000    0.01245
1752.50000    0.01594
1753.00000    0.02143
1753.50000    0.02873
1754.00000    0.03760
1754.50000    0.04781
1755.00000    0.05908
1755.50000    0.07115
1756.00000    0.08375
1756.50000    0.09664
1757.00000    0.10957
1757.50000    0.12232
1758.00000    0.13471
1758.50000    0.14658
1759.00000    0.15778
1759.50000    0.16821
1760.00000    0.17776
1760.50000    0.18636
1761.00000    0.19396
1761.50000    0.20051
1762.00000    0.20596
1762.50000    0.21028
1763.00000    0.21341
1763.50000    0.21533
1764.00000    0.21598
1764.50000    0.21532
1765.00000    0.21329
1765.50000    0.20984
1766.00000    0.20492
1766.50000    0.19848
1767.00000    0.19050
1767.50000    0.18094
1768.00000    0.16980
1768.50000    0.15710
1769.00000    0.14286
1769.50000    0.12714
1770.00000    0.11002
1770.50000    0.09161
1771.00000    0.07202
1771.50000    0.05139
1772.00000    0.02988
1772.50000    0.00765
1773.00000   -0.01512
1773.50000   -0.03825
1774.00000   -0.06157
1774.50000   -0.08491
1775.00000   -0.10808
1775.50000   -0.13094
1776.00000   -0.15332
1776.50000   -0.17508
1777.00000   -0.19609
1777.50000   -0.21620
1778.00000   -0.23529
1778.50000   -0.25322
1779.00000   -0.26988
1779.50000   -0.28512
1780.00000   -0.29880
1780.50000   -0.31078
1781.00000   -0.32092
1781.50000   -0.32906
1782.00000   -0.33506
1782.50000   -0.33876
1783.00000   -0.34006
1783.50000   -0.33882
1784.00000   -0.33498
1784.50000   -0.32850
1785.00000   -0.31936
1785.50000   -0.30763
1786.00000   -0.29341
1786.50000   -0.27687
1787.00000   -0.25825
1787.50000   -0.23782
1788.00000   -0.21595
1788.50000   -0.19304
1789.00000   -0.16953
1789.50000   -0.14590
1790.00000   -0.12265
1790.50000   -0.10027
1791.00000   -0.07924
1791.50000   -0.06000
1792.00000   -0.04297
1792.50000   -0.02848
1793.00000   -0.01679
1793.50000   -0.00807
1794.00000   -0.00239
1794.50000    0.00027
1795.00000    0.00002
1795.50000   -0.00290
1796.00000   -0.00821
1796.50000   -0.01552
1797.00000   -0.02441
1797.50000   -0.03441
1798.00000   -0.04503
1798.50000   -0.05579
1799.00000   -0.06622
1799.50000   -0.07590
1800.00000   -0.08444
1800.50000   -0.09153
1801.00000   -0.09694
1801.50000   -0.10051
1802.00000   -0.10216
1802.50000   -0.10189
1803.00000   -0.09976
1803.50000   -0.09593
1804.00000   -0.09057
1804.50000   -0.08391
1805.00000   -0.07621
1805.50000   -0.06774
1806.00000   -0.05876
1806.50000   -0.04953
1807.00000   -0.04027
1807.50000   -0.03119
1808.00000   -0.02244
1808.50000   -0.01416
1809.00000   -0.00641
1809.50000    0.00074
1810.00000    0.00730
1810.50000    0.01328
1811.00000    0.01870
1811.50000    0.02364
1812.00000    0.02814
1812.50000    0.03228
1813.00000    0.03610
1813.50000    0.03967
1814.00000    0.04302
1814.50000    0.04620
1815.00000    0.04922
1815.50000    0.05211
1816.00000    0.05489
1816.50000    0.05756
1817.00000    0.06015
1817.50000    0.06266
1818.00000    0.06513
1818.50000    0.06758
1819.00000    0.07004
1819.50000    0.07255
1820.00000    0.07515
1820.50000    0.07788
1821.00000    0.08077
1821.50000    0.08384
1822.00000    0.08711
1822.50000    0.09055
1823.00000    0.09415
1823.50000    0.09784
1824.00000    0.10156
1824.50000    0.10520
1825.00000    0.10866
1825.50000    0.11181
1826.00000    0.11453
1826.50000    0.11668
1827.00000    0.11815
1827.50000    0.11885
1828.00000    0.11872
1828.50000    0.11774
1829.00000    0.11593
1829.50000    0.11336
1830.00000    0.11016
1830.50000    0.10651
1831.00000    0.10264
1831.50000    0.09881
1832.00000    0.09533
1832.50000    0.09253
1833.00000    0.09076
1833.50000    0.09036
1834.00000    0.09166
1834.50000    0.09494
1835.00000    0.10047
1835.50000    0.10843
1836.00000    0.11895
1836.50000    0.13207
1837.00000    0.14775
1837.50000    0.16588
1838.00000    0.18623
1838.50000    0.20852
1839.00000    0.23238
1839.50000    0.25738
1840.00000    0.28302
1840.50000    0.30878
1841.00000    0.33412
1841.50000    0.35848
1842.00000    0.38134
1842.50000    0.40217
1843.00000    0.42051
1843.50000    0.43595
1844.00000    0.44815
1844.50000    0.45684
1845.00000    0.46183
1845.50000    0.46300
1846.00000    0.46032
1846.50000    0.45382
1847.00000    0.44362
1847.50000    0.42986
1848.00000    0.41277
1848.50000    0.39260
1849.00000    0.36962
1849.50000    0.34414
1850.00000    0.31646
1850.50000    0.28690
1851.00000    0.25574
1851.50000    0.22330
1852.00000    0.18985
1852.50000    0.15566
1853.00000    0.12099
1853.50000    0.08608
1854.00000    0.05117
1854.50000    0.01651
1855.00000   -0.01767
1855.50000   -0.05113
1856.00000   -0.08360
1856.50000   -0.11482
1857.00000   -0.14451
1857.50000   -0.17239
1858.00000   -0.19816
1858.50000   -0.22152
1859.00000   -0.24220
1859.50000   -0.25991
1860.00000   -0.27442
1860.50000   -0.28550
1861.00000   -0.29298
1861.50000   -0.29674
1862.00000   -0.29672
1862.50000   -0.29290
1863.00000   -0.28535
1863.50000   -0.27419
1864.00000   -0.25960
1864.50000   -0.24183
1865.00000   -0.22115
1865.50000   -0.19792
1866.00000   -0.17248
1866.50000   -0.14525
1867.00000   -0.11662
1867.50000   -0.08701
1868.00000   -0.05683
1868.50000   -0.02649
1869.00000    0.00362
1869.50000    0.03312
1870.00000    0.06167
1870.50000    0.08891
1871.00000    0.11454
1871.50000    0.13825
1872.00000    0.15976
1872.50000    0.17878
1873.00000    0.19508
1873.50000    0.20841
1874.00000    0.21854
1874.50000    0.22529
1875.00000    0.22849
1875.50000    0.22802
1876.00000    0.22379
1876.50000    0.21578
1877.00000    0.20404
1877.50000    0.18868
1878.00000    0.16988
1878.50000    0.14792
1879.00000    0.12315
1879.50000    0.09599
1880.00000    0.06692
1880.50000    0.03648
1881.00000    0.00525
1881.50000   -0.02615
1882.00000   -0.05713
1882.50000   -0.08709
1883.00000   -0.11547
1883.50000   -0.14176
1884.00000   -0.16553
1884.50000   -0.18641
1885.00000   -0.20414
1885.50000   -0.21855
1886.00000   -0.22956
1886.50000   -0.23719
1887.00000   -0.24155
1887.50000   -0.24283
1888.00000   -0.24126
1888.50000   -0.23716
1889.00000   -0.23084
1889.50000   -0.22265
1890.00000   -0.21296
1890.50000   -0.20209
1891.00000   -0.19037
1891.50000   -0.17808
1892.00000   -0.16550
1892.50000   -0.15283
1893.00000   -0.14027
1893.50000   -0.12797
1894.00000   -0.11605
1894.50000   -0.10461
1895.00000   -0.09373
1895.50000   -0.08348
1896.00000   -0.07389
1896.50000   -0.06501
1897.00000   -0.05686
1897.50000   -0.04946
1898.00000   -0.04282
1898.50000   -0.03692
1899.00000   -0.03173
1899.50000   -0.02721
1900.00000   -0.02328
1900.50000   -0.01985
1901.00000   -0.01680
1901.50000   -0.01401
1902.00000   -0.01131
1902.50000   -0.00855
1903.00000   -0.00557
1903.50000   -0.00220
1904.00000    0.00171
1904.50000    0.00628
1905.00000    0.01161
1905.50000    0.01777
1906.00000    0.02477
1906.50000    0.03260
1907.00000    0.04118
1907.50000    0.05041
1908.00000    0.06013
1908.50000    0.07014
1909.00000    0.08022
1909.50000    0.09013
1910.00000    0.09960
1910.50000    0.10837
1911.00000    0.11618
1911.50000    0.12279
1912.00000    0.12796
1912.50000    0.13149
1913.00000    0.13321
1913.50000    0.13300
1914.00000    0.13076
1914.50000    0.12646
1915.00000    0.12008
1915.50000    0.11168
1916.00000    0.10136
1916.50000    0.08925
1917.00000    0.07556
1917.50000    0.06052
1918.00000    0.04442
1918.50000    0.02759
1919.00000    0.01037
1919.50000   -0.00683
1920.00000   -0.02361
1920.50000   -0.03954
1921.00000   -0.05422
1921.50000   -0.06723
1922.00000   -0.07819
1922.50000   -0.08677
1923.00000   -0.09269
1923.50000   -0.09572
1924.00000   -0.09574
1924.50000   -0.09268
1925.00000   -0.08658
1925.50000   -0.07758
1926.00000   -0.06590
1926.50000   -0.05182
1927.00000   -0.03573
1927.50000   -0.01806
1928.00000    0.00073
1928.50000    0.02015
1929.00000    0.03970
1929.50000    0.05891
1930.00000    0.07735
1930.50000    0.09462
1931.00000    0.11042
1931.50000    0.12450
1932.00000    0.13668
1932.50000    0.14688
1933.00000    0.15508
1933.50000    0.16130
1934.00000    0.16567
1934.50000    0.16830
1935.00000    0.16936
1935.50000    0.16904
1936.00000    0.16750
1936.50000    0.16491
1937.00000    0.16144
1937.50000    0.15720
1938.00000    0.15231
1938.50000    0.14685
1939.00000    0.14089
1939.50000    0.13449
1940.00000    0.12770
1940.50000    0.12057
1941.00000    0.11320
1941.50000    0.10565
1942.00000    0.09805
1942.50000    0.09053
1943.00000    0.08326
1943.50000    0.07641
1944.00000    0.07018
1944.50000    0.06477
1945.00000    0.06035
1945.50000    0.05710
1946.00000    0.05515
1946.50000    0.05458
1947.00000    0.05544
1947.50000    0.05769
1948.00000    0.06126
1948.50000    0.06598
1949.00000    0.07166
1949.50000    0.07803
1950.00000    0.08480
1950.50000    0.09163
1951.00000    0.09820
1951.50000    0.10416
1952.00000    0.10918
1952.50000    0.11298
1953.00000    0.11529
1953.50000    0.11590
1954.00000    0.11466
1954.50000    0.11146
1955.00000    0.10625
1955.50000    0.09904
1956.00000    0.08988
1956.50000    0.07888
1957.00000    0.06617
1957.50000    0.05191
1958.00000    0.03631
1958.50000    0.01956
1959.00000    0.00189
1959.50000   -0.01648
1960.00000   -0.03531
1960.50000   -0.05439
1961.00000   -0.07347
1961.50000   -0.09235
1962.00000   -0.11081
1962.50000   -0.12864
1963.00000   -0.14567
1963.50000   -0.16172
1964.00000   -0.17664
1964.50000   -0.19032
1965.00000   -0.20266
1965.50000   -0.21363
1966.00000   -0.22319
1966.50000   -0.23140
1967.00000   -0.23832
1967.50000   -0.24407
1968.00000   -0.24881
1968.50000   -0.25272
1969.00000   -0.25600
1969.50000   -0.25887
1970.00000   -0.26152
1970.50000   -0.26414
1971.00000   -0.26687
1971.50000   -0.26981
1972.00000   -0.27301
1972.50000   -0.27644
1973.00000   -0.27998
1973.50000   -0.28348
1974.00000   -0.28669
1974.50000   -0.28932
1975.00000   -0.29102
1975.50000   -0.29143
1976.00000   -0.29017
1976.50000   -0.28689
1977.00000   -0.28126
1977.50000   -0.27301
1978.00000   -0.26195
1978.50000   -0.24799
1979.00000   -0.23112
1979.50000   -0.21146
1980.00000   -0.18922
1980.50000   -0.16473
1981.00000   -0.13840
1981.50000   -0.11070
1982.00000   -0.08217
1982.50000   -0.05337
1983.00000   -0.02486
1983.50000    0.00283
1984.00000    0.02922
1984.50000    0.05390
1985.00000    0.07654
1985.50000    0.09695
1986.00000    0.11503
1986.50000    0.13078
1987.00000    0.14432
1987.50000    0.15588
1988.00000    0.16575
1988.50000    0.17427
1989.00000    0.18183
1989.50000    0.18880
1990.00000    0.19553
1990.50000    0.20235
1991.00000    0.20950
1991.50000    0.21713
1992.00000    0.22531
1992.50000    0.23400
1993.00000    0.24308
1993.50000    0.25232
1994.00000    0.26142
1994.50000    0.27003
1995.00000    0.27776
1995.50000    0.28421
1996.00000    0.28899
1996.50000    0.29174
1997.00000    0.29218
1997.50000    0.29010
1998.00000    0.28538
1998.50000    0.27802
1999.00000    0.26811
1999.50000    0.25586
2000.00000    0.24158
2000.50000    0.22564
2001.00000    0.20852
2001.50000    0.19071
2002.00000    0.17275
2002.50000    0.15516
2003.00000    0.13844
2003.50000    0.12303
2004.00000    0.10931
2004.50000    0.09758
2005.00000    0.08800
2005.50000    0.08066
2006.00000    0.07553
2006.50000    0.07245
2007.00000    0.07117
2007.50000    0.07136
2008.00000    0.07260
2008.50000    0.07442
2009.00000    0.07632
2009.50000    0.07778
2010.00000    0.07830
2010.50000    0.07738
2011.00000    0.07461
2011.50000    0.06961
2012.00000    0.06210
2012.50000    0.05188
2013.00000    0.03885
2013.50000    0.02300
2014.00000    0.00443
2014.50000   -0.01667
2015.00000   -0.04000
2015.50000   -0.06519
2016.00000   -0.09180
2016.50000   -0.11932
2017.00000   -0.14717
2017.50000   -0.17476
2018.00000   -0.20148
2018.50000   -0.22669
2019.00000   -0.24978
2019.50000   -0.27019
2020.00000   -0.28737
2020.50000   -0.30086
2021.00000   -0.31028
2021.50000   -0.31534
2022.00000   -0.31585
2022.50000   -0.31176
2023.00000   -0.30313
2023.50000   -0.29016
2024.00000   -0.27318
2024.50000   -0.25262
2025.00000   -0.22905
2025.50000   -0.20314
2026.00000   -0.17563
2026.50000   -0.14732
2027.00000   -0.11906
2027.50000   -0.09168
2028.00000   -0.06600
2028.50000   -0.04281
2029.00000   -0.02277
2029.50000   -0.00649
2030.00000    0.00561
2030.50000    0.01319
2031.00000    0.01614
2031.50000    0.01445
2032.00000    0.00831
2032.50000   -0.00193
2033.00000   -0.01579
2033.50000   -0.03267
2034.00000   -0.05188
2034.50000   -0.07262
2035.00000   -0.09411
2035.50000   -0.11551
2036.00000   -0.13604
2036.50000   -0.15495
2037.00000   -0.17158
2037.50000   -0.18537
2038.00000   -0.19584
2038.50000   -0.20267
2039.00000   -0.20564
2039.50000   -0.20465
2040.00000   -0.19973
2040.50000   -0.19101
2041.00000   -0.17870
2041.50000   -0.16308
2042.00000   -0.14452
2042.50000   -0.12338
2043.00000   -0.10008
2043.50000   -0.07504
2044.00000   -0.04868
2044.50000   -0.02139
2045.00000    0.00642
2045.50000    0.03439
2046.00000    0.06216
2046.50000    0.08939
2047.00000    0.11576
2047.50000    0.14095
2048.00000    0.16467
2048.50000    0.18661
2049.00000    0.20649
2049.50000    0.22403
2050.00000    0.23898
2050.50000    0.25107
2051.00000    0.26011
2051.50000    0.26592
2052.00000    0.26837
2052.50000    0.26738
2053.00000    0.26297
2053.50000    0.25520
2054.00000    0.24422
2054.50000    0.23025
2055.00000    0.21362
2055.50000    0.19468
2056.00000    0.17390
2056.50000    0.15175
2057.00000    0.12877
2057.50000    0.10551
2058.00000    0.08251
2058.50000    0.06030
2059.00000    0.03938
2059.50000    0.02018
2060.00000    0.00310
2060.50000   -0.01158
2061.00000   -0.02363
2061.50000   -0.03292
2062.00000   -0.03941
2062.50000   -0.04314
2063.00000   -0.04422
2063.50000   -0.04286
2064.00000   -0.03929
2064.50000   -0.03381
2065.00000   -0.02676
2065.50000   -0.01849
2066.00000   -0.00935
2066.50000    0.00030
2067.00000    0.01013
2067.50000    0.01984
2068.00000    0.02914
2068.50000    0.03782
2069.00000    0.04570
2069.50000    0.05266
2070.00000    0.05862
2070.50000    0.06356
2071.00000    0.06751
2071.50000    0.07053
2072.00000    0.07272
2072.50000    0.07422
2073.00000    0.07515
2073.50000    0.07567
2074.00000    0.07593
2074.50000    0.07603
2075.00000    0.07610
2075.50000    0.07617
2076.00000    0.07629
2076.50000    0.07643
2077.00000    0.07650
2077.50000    0.07641
2078.00000    0.07599
2078.50000    0.07505
2079.00000    0.07337
2079.50000    0.07073
2080.00000    0.06689
2080.50000    0.06166
2081.00000    0.05485
2081.50000    0.04635
2082.00000    0.03607
2082.50000    0.02402
2083.00000    0.01029
2083.50000   -0.00498
2084.00000   -0.02155
2084.50000   -0.03909
2085.00000   -0.05725
2085.50000   -0.07557
2086.00000   -0.09361
2086.50000   -0.11086
2087.00000   -0.12683
2087.50000   -0.14106
2088.00000   -0.15311
2088.50000   -0.16258
2089.00000   -0.16915
2089.50000   -0.17258
2090.00000   -0.17269
2090.50000   -0.16939
2091.00000   -0.16270
2091.50000   -0.15270
2092.00000   -0.13955
2092.50000   -0.12348
2093.00000   -0.10478
2093.50000   -0.08378
2094.00000   -0.06085
2094.50000   -0.03638
2095.00000   -0.01078
2095.50000    0.01554
2096.00000    0.04218
2096.50000    0.06876
2097.00000    0.09490
2097.50000    0.12026
2098.00000    0.14451
2098.50000    0.16735
2099.00000    0.18851
2099.50000    0.20774
2100.00000    0.22483
2100.50000    0.23958
2101.00000    0.25181
2101.50000    0.26139
2102.00000    0.26818
2102.50000    0.27210
2103.00000    0.27305
2103.50000    0.27101
2104.00000    0.26593
2104.50000    0.25784
2105.00000    0.24676
2105.50000    0.23276
2106.00000    0.21592
2106.50000    0.19637
2107.00000    0.17425
2107.50000    0.14972
2108.00000    0.12300
2108.50000    0.09428
2109.00000    0.06381
2109.50000    0.03183
2110.00000   -0.00138
2110.50000   -0.03557
2111.00000   -0.07045
2111.50000   -0.10573
2112.00000   -0.14111
2112.50000   -0.17629
2113.00000   -0.21097
2113.50000   -0.24482
2114.00000   -0.27753
2114.50000   -0.30875
2115.00000   -0.33814
2115.50000   -0.36534
2116.00000   -0.38998
2116.50000   -0.41168
2117.00000   -0.43005
2117.50000   -0.44469
2118.00000   -0.45523
2118.50000   -0.46129
2119.00000   -0.46252
2119.50000   -0.45862
2120.00000   -0.44932
2120.50000   -0.43441
2121.00000   -0.41378
2121.50000   -0.38739
2122.00000   -0.35527
2122.50000   -0.31761
2123.00000   -0.27465
2123.50000   -0.22678
2124.00000   -0.17447
2124.50000   -0.11830
2125.00000   -0.05894
2125.50000    0.00286
2126.00000    0.06632
2126.50000    0.13059
2127.00000    0.19484
2127.50000    0.25822
2128.00000    0.31993
2128.50000    0.37920
2129.00000    0.43534
2129.50000    0.48775
2130.00000    0.53591
2130.50000    0.57941
2131.00000    0.61795
2131.50000    0.65134
2132.00000    0.67948
2132.50000    0.70238
2133.00000    0.72012
2133.50000    0.73287
2134.00000    0.74085
2134.50000    0.74434
2135.00000    0.74363
2135.50000    0.73905
2136.00000    0.73096
2136.50000    0.71969
2137.00000    0.70560
2137.50000    0.68902
2138.00000    0.67029
2138.50000    0.64974
2139.00000    0.62768
2139.50000    0.60442
2140.00000    0.58026
2140.50000    0.55550
2141.00000    0.53044
2141.50000    0.50536
2142.00000    0.48056
2142.50000    0.45631
2143.00000    0.43288
2143.50000    0.41053
2144.00000    0.38949
2144.50000    0.36999
2145.00000    0.35219
2145.50000    0.33625
2146.00000    0.32227
2146.50000    0.31032
2147.00000    0.30041
2147.50000    0.29249
2148.00000    0.28647
2148.50000    0.28221
2149.00000    0.27950
2149.50000    0.27811
2150.00000    0.27774
2150.50000    0.27809
2151.00000    0.27880
2151.50000    0.27951
2152.00000    0.27985
2152.50000    0.27946
2153.00000    0.27797
2153.50000    0.27508
2154.00000    0.27049
2154.50000    0.26395
2155.00000    0.25529
2155.50000    0.24438
2156.00000    0.23117
2156.50000    0.21567
2157.00000    0.19799
2157.50000    0.17827
2158.00000    0.15676
2158.50000    0.13376
2159.00000    0.10961
2159.50000    0.08472
2160.00000    0.05950
2160.50000    0.03443
2161.00000    0.00995
2161.50000   -0.01349
2162.00000   -0.03544
2162.50000   -0.05552
2163.00000   -0.07337
2163.50000   -0.08871
2164.00000   -0.10131
2164.50000   -0.11102
2165.00000   -0.11777
2165.50000   -0.12158
2166.00000   -0.12255
2166.50000   -0.12086
2167.00000   -0.11677
2167.50000   -0.11061
2168.00000   -0.10276
2168.50000   -0.09365
2169.00000   -0.08376
2169.50000   -0.07355
2170.00000   -0.06352
2170.50000   -0.05412
2171.00000   -0.04580
2171.50000   -0.03893
2172.00000   -0.03383
2172.50000   -0.03075
2173.00000   -0.02985
2173.50000   -0.03121
2174.00000   -0.03481
2174.50000   -0.04055
2175.00000   -0.04822
2175.50000   -0.05758
2176.00000   -0.06830
2176.50000   -0.08001
2177.00000   -0.09233
2177.50000   -0.10484
2178.00000   -0.11717
2178.50000   -0.12893
2179.00000   -0.13982
2179.50000   -0.14956
2180.00000   -0.15793
2180.50000   -0.16481
2181.00000   -0.17010
2181.50000   -0.17381
2182.00000   -0.17597
2182.50000   -0.17666
2183.00000   -0.17600
2183.50000   -0.17412
2184.00000   -0.17116
2184.50000   -0.16726
2185.00000   -0.16251
2185.50000   -0.15701
2186.00000   -0.15081
2186.50000   -0.14392
2187.00000   -0.13633
2187.50000   -0.12801
2188.00000   -0.11889
2188.50000   -0.10891
2189.00000   -0.09801
2189.50000   -0.08613
2190.00000   -0.07324
2190.50000   -0.05936
2191.00000   -0.04454
2191.50000   -0.02886
2192.00000   -0.01247
2192.50000    0.00444
2193.00000    0.02165
2193.50000    0.03890
2194.00000    0.05590
2194.50000    0.07234
2195.00000    0.08793
2195.50000    0.10238
2196.00000    0.11541
2196.50000    0.12680
2197.00000    0.13633
2197.50000    0.14387
2198.00000    0.14932
2198.50000    0.15264
2199.00000    0.15384
2199.50000    0.15298
2200.00000    0.15017
2200.50000    0.14557
2201.00000    0.13935
2201.50000    0.13174
2202.00000    0.12295
2202.50000    0.11322
2203.00000    0.10279
2203.50000    0.09189
2204.00000    0.08074
2204.50000    0.06954
2205.00000    0.05847
2205.50000    0.04767
2206.00000    0.03729
2206.50000    0.02742
2207.00000    0.01814
2207.50000    0.00950
2208.00000    0.00155
2208.50000   -0.00571
2209.00000   -0.01227
2209.50000   -0.01812
2210.00000   -0.02327
2210.50000   -0.02773
2211.00000   -0.03151
2211.50000   -0.03459
2212.00000   -0.03698
2212.50000   -0.03867
2213.00000   -0.03964
2213.50000   -0.03988
2214.00000   -0.03940
2214.50000   -0.03819
2215.00000   -0.03628
2215.50000   -0.03371
2216.00000   -0.03055
2216.50000   -0.02689
2217.00000   -0.02286
2217.50000   -0.01862
2218.00000   -0.01435
2218.50000   -0.01027
2219.00000   -0.00660
2219.50000   -0.00357
2220.00000   -0.00139
2220.50000   -0.00029
2221.00000   -0.00044
2221.50000   -0.00197
2222.00000   -0.00495
2222.50000   -0.00941
2223.00000   -0.01528
2223.50000   -0.02244
2224.00000   -0.03068
2224.50000   -0.03973
2225.00000   -0.04928
2225.50000   -0.05894
2226.00000   -0.06831
2226.50000   -0.07697
2227.00000   -0.08453
2227.50000   -0.09060
2228.00000   -0.09484
2228.50000   -0.09697
2229.00000   -0.09681
2229.50000   -0.09423
2230.00000   -0.08919
2230.50000   -0.08177
2231.00000   -0.07211
2231.50000   -0.06041
2232.00000   -0.04697
2232.50000   -0.03209
2233.00000   -0.01612
2233.50000    0.00059
2234.00000    0.01771
2234.50000    0.03496
2235.00000    0.05208
2235.50000    0.06891
2236.00000    0.08534
2236.50000    0.10137
2237.00000    0.11704
2237.50000    0.13250
2238.00000    0.14793
2238.50000    0.16359
2239.00000    0.17973
2239.50000    0.19663
2240.00000    0.21457
2240.50000    0.23375
2241.00000    0.25434
2241.50000    0.27645
2242.00000    0.30005
2242.50000    0.32504
2243.00000    0.35120
2243.50000    0.37821
2244.00000    0.40563
2244.50000    0.43292
2245.00000    0.45950
2245.50000    0.48468
2246.00000    0.50777
2246.50000    0.52804
2247.00000    0.54480
2247.50000    0.55739
2248.00000    0.56521
2248.50000    0.56776
2249.00000    0.56466
2249.50000    0.55564
2250.00000    0.54057
2250.50000    0.51949
2251.00000    0.49256
2251.50000    0.46011
2252.00000    0.42257
2252.50000    0.38054
2253.00000    0.33470
2253.50000    0.28583
2254.00000    0.23477
2254.50000    0.18243
2255.00000    0.12971
2255.50000    0.07753
2256.00000    0.02679
2256.50000   -0.02166
2257.00000   -0.06703
2257.50000   -0.10858
2258.00000   -0.14569
2258.50000   -0.17782
2259.00000   -0.20451
2259.50000   -0.22545
2260.00000   -0.24040
2260.50000   -0.24925
2261.00000   -0.25200
2261.50000   -0.24873
2262.00000   -0.23963
2262.50000   -0.22500
2263.00000   -0.20520
2263.50000   -0.18069
2264.00000   -0.15200
2264.50000   -0.11973
2265.00000   -0.08452
2265.50000   -0.04708
2266.00000   -0.00816
2266.50000    0.03149
2267.00000    0.07106
2267.50000    0.10976
2268.00000    0.14681
2268.50000    0.18146
2269.00000    0.21297
2269.50000    0.24068
2270.00000    0.26400
2270.50000    0.28240
2271.00000    0.29549
2271.50000    0.30295
2272.00000    0.30462
2272.50000    0.30044
2273.00000    0.29051
2273.50000    0.27505
2274.00000    0.25443
2274.50000    0.22912
2275.00000    0.19973
2275.50000    0.16695
2276.00000    0.13156
2276.50000    0.09441
2277.00000    0.05633
2277.50000    0.01821
2278.00000   -0.01911
2278.50000   -0.05486
2279.00000   -0.08832
2279.50000   -0.11889
2280.00000   -0.14606
2280.50000   -0.16949
2281.00000   -0.18896
2281.50000   -0.20440
2282.00000   -0.21588
2282.50000   -0.22363
2283.00000   -0.22796
2283.50000   -0.22930
2284.00000   -0.22818
2284.50000   -0.22514
2285.00000   -0.22078
2285.50000   -0.21570
2286.00000   -0.21045
2286.50000   -0.20555
2287.00000   -0.20145
2287.50000   -0.19850
2288.00000   -0.19696
2288.50000   -0.19699
2289.00000   -0.19863
2289.50000   -0.20184
2290.00000   -0.20644
2290.50000   -0.21222
2291.00000   -0.21887
2291.50000   -0.22604
2292.00000   -0.23334
2292.50000   -0.24037
2293.00000   -0.24672
2293.50000   -0.25201
2294.00000   -0.25589
2294.50000   -0.25806
2295.00000   -0.25824
2295.50000   -0.25624
2296.00000   -0.25192
2296.50000   -0.24519
2297.00000   -0.23602
2297.50000   -0.22445
2298.00000   -0.21055
2298.50000   -0.19446
2299.00000   -0.17633
2299.50000   -0.15639
2300.00000   -0.13487
2300.50000   -0.11204
2301.00000   -0.08819
2301.50000   -0.06362
2302.00000   -0.03867
2302.50000   -0.01366
2303.00000    0.01106
2303.50000    0.03515
2304.00000    0.05828
2304.50000    0.08014
2305.00000    0.10043
2305.50000    0.11890
2306.00000    0.13531
2306.50000    0.14951
2307.00000    0.16137
2307.50000    0.17084
2308.00000    0.17795
2308.50000    0.18278
2309.00000    0.18548
2309.50000    0.18628
2310.00000    0.18547
2310.50000    0.18337
2311.00000    0.18037
2311.50000    0.17687
2312.00000    0.17329
2312.50000    0.17003
2313.00000    0.16747
2313.50000    0.16598
2314.00000    0.16583
2314.50000    0.16726
2315.00000    0.17041
2315.50000    0.17533
2316.00000    0.18198
2316.50000    0.19023
2317.00000    0.19985
2317.50000    0.21055
2318.00000    0.22192
2318.50000    0.23354
2319.00000    0.24489
2319.50000    0.25547
2320.00000    0.26474
2320.50000    0.27219
2321.00000    0.27732
2321.50000    0.27969
2322.00000    0.27895
2322.50000    0.27479
2323.00000    0.26702
2323.50000    0.25555
2324.00000    0.24041
2324.50000    0.22173
2325.00000    0.19974
2325.50000    0.17481
2326.00000    0.14737
2326.50000    0.11795
2327.00000    0.08717
2327.50000    0.05568
2328.00000    0.02416
2328.50000   -0.00667
2329.00000   -0.03610
2329.50000   -0.06346
2330.00000   -0.08811
2330.50000   -0.10946
2331.00000   -0.12702
2331.50000   -0.14037
2332.00000   -0.14920
2332.50000   -0.15332
2333.00000   -0.15266
2333.50000   -0.14725
2334.00000   -0.13728
2334.50000   -0.12302
2335.00000   -0.10488
2335.50000   -0.08337
2336.00000   -0.05910
2336.50000   -0.03275
2337.00000   -0.00507
2337.50000    0.02314
2338.00000    0.05108
2338.50000    0.07792
2339.00000    0.10287
2339.50000    0.12520
2340.00000    0.14423
2340.50000    0.15937
2341.00000    0.17016
2341.50000    0.17625
2342.00000    0.17744
2342.50000    0.17365
2343.00000    0.16499
2343.50000    0.15169
2344.00000    0.13411
2344.50000    0.11276
2345.00000    0.08822
2345.50000    0.06120
2346.00000    0.03242
2346.50000    0.00267
2347.00000   -0.02727
2347.50000   -0.05665
2348.00000   -0.08474
2348.50000   -0.11091
2349.00000   -0.13461
2349.50000   -0.15537
2350.00000   -0.17285
2350.50000   -0.18683
2351.00000   -0.19719
2351.50000   -0.20392
2352.00000   -0.20711
2352.50000   -0.20694
2353.00000   -0.20367
2353.50000   -0.19759
2354.00000   -0.18905
2354.50000   -0.17843
2355.00000   -0.16610
2355.50000   -0.15244
2356.00000   -0.13781
2356.50000   -0.12255
2357.00000   -0.10698
2357.50000   -0.09137
2358.00000   -0.07597
2358.50000   -0.06099
2359.00000   -0.04661
2359.50000   -0.03297
2360.00000   -0.02021
2360.50000   -0.00839
2361.00000    0.00239
2361.50000    0.01211
2362.00000    0.02071
2362.50000    0.02818
2363.00000    0.03451
2363.50000    0.03969
2364.00000    0.04369
2364.50000    0.04652
2365.00000    0.04816
2365.50000    0.04856
2366.00000    0.04770
2366.50000    0.04554
2367.00000    0.04201
2367.50000    0.03706
2368.00000    0.03065
2368.50000    0.02273
2369.00000    0.01327
2369.50000    0.00230
2370.00000   -0.01014
2370.50000   -0.02397
2371.00000   -0.03901
2371.50000   -0.05507
2372.00000   -0.07187
2372.50000   -0.08906
2373.00000   -0.10628
2373.50000   -0.12307
2374.00000   -0.13900
2374.50000   -0.15358
2375.00000   -0.16636
2375.50000   -0.17692
2376.00000   -0.18488
2376.50000   -0.18995
2377.00000   -0.19194
2377.50000   -0.19075
2378.00000   -0.18639
2378.50000   -0.17901
2379.00000   -0.16885
2379.50000   -0.15626
2380.00000   -0.14168
2380.50000   -0.12560
2381.00000   -0.10855
2381.50000   -0.09109
2382.00000   -0.07374
2382.50000   -0.05700
2383.00000   -0.04129
2383.50000   -0.02696
2384.00000   -0.01426
2384.50000   -0.00333
2385.00000    0.00578
2385.50000    0.01310
2386.00000    0.01879
2386.50000    0.02304
2387.00000    0.02609
2387.50000    0.02824
2388.00000    0.02977
2388.50000    0.03096
2389.00000    0.03205
2389.50000    0.03326
2390.00000    0.03474
2390.50000    0.03659
2391.00000    0.03884
2391.50000    0.04149
2392.00000    0.04447
2392.50000    0.04770
2393.00000    0.05104
2393.50000    0.05437
2394.00000    0.05757
2394.50000    0.06052
2395.00000    0.06313
2395.50000    0.06534
2396.00000    0.06712
2396.50000    0.06849
2397.00000    0.06948
2397.50000    0.07017
2398.00000    0.07067
2398.50000    0.07110
2399.00000    0.07160
2399.50000    0.07231
2400.00000    0.07337
2400.50000    0.07492
2401.00000    0.07708
2401.50000    0.07994
2402.00000    0.08357
2402.50000    0.08803
2403.00000    0.09333
2403.50000    0.09946
2404.00000    0.10637
2404.50000    0.11398
2405.00000    0.12218
2405.50000    0.13081
2406.00000    0.13971
2406.50000    0.14867
2407.00000    0.15746
2407.50000    0.16582
2408.00000    0.17349
2408.50000    0.18019
2409.00000    0.18564
2409.50000    0.18956
2410.00000    0.19170
2410.50000    0.19183
2411.00000    0.18974
2411.50000    0.18529
2412.00000    0.17837
2412.50000    0.16895
2413.00000    0.15704
2413.50000    0.14273
2414.00000    0.12617
2414.50000    0.10759
2415.00000    0.08726
2415.50000    0.06551
2416.00000    0.04272
2416.50000    0.01928
2417.00000   -0.00438
2417.50000   -0.02783
2418.00000   -0.05066
2418.50000   -0.07248
2419.00000   -0.09292
2419.50000   -0.11168
2420.00000   -0.12850
2420.50000   -0.14320
2421.00000   -0.15566
2421.50000   -0.16583
2422.00000   -0.17374
2422.50000   -0.17948
2423.00000   -0.18321
2423.50000   -0.18513
2424.00000   -0.18549
2424.50000   -0.18458
2425.00000   -0.18268
2425.50000   -0.18008
2426.00000   -0.17705
2426.50000   -0.17383
2427.00000   -0.17062
2427.50000   -0.16754
2428.00000   -0.16467
2428.50000   -0.16200
2429.00000   -0.15944
2429.50000   -0.15683
2430.00000   -0.15393
2430.50000   -0.15045
2431.00000   -0.14604
2431.50000   -0.14032
2432.00000   -0.13291
2432.50000   -0.12342
2433.00000   -0.11150
2433.50000   -0.09686
2434.00000   -0.07929
2434.50000   -0.05866
2435.00000   -0.03495
2435.50000   -0.00827
2436.00000    0.02114
2436.50000    0.05291
2437.00000    0.08658
2437.50000    0.12155
2438.00000    0.15714
2438.50000    0.19261
2439.00000    0.22715
2439.50000    0.25997
2440.00000    0.29027
2440.50000    0.31730
2441.00000    0.34040
2441.50000    0.35897
2442.00000    0.37255
2442.50000    0.38080
2443.00000    0.38353
2443.50000    0.38067
2444.00000    0.37231
2444.50000    0.35866
2445.00000    0.34004
2445.50000    0.31690
2446.00000    0.28972
2446.50000    0.25908
2447.00000    0.22558
2447.50000    0.18983
2448.00000    0.15246
2448.50000    0.11404
2449.00000    0.07515
2449.50000    0.03632
2450.00000   -0.00197
2450.50000   -0.03929
2451.00000   -0.07524
2451.50000   -0.10947
2452.00000   -0.14166
2452.50000   -0.17151
2453.00000   -0.19875
2453.50000   -0.22314
2454.00000   -0.24443
2454.50000   -0.26241
2455.00000   -0.27687
2455.50000   -0.28762
2456.00000   -0.29450
2456.50000   -0.29740
2457.00000   -0.29621
2457.50000   -0.29093
2458.00000   -0.28156
2458.50000   -0.26821
2459.00000   -0.25104
2459.50000   -0.23030
2460.00000   -0.20629
2460.50000   -0.17938
2461.00000   -0.15003
2461.50000   -0.11872
2462.00000   -0.08598
2462.50000   -0.05235
2463.00000   -0.01839
2463.50000    0.01536
2464.00000    0.04835
2464.50000    0.08012
2465.00000    0.11020
2465.50000    0.13821
2466.00000    0.16382
2466.50000    0.18676
2467.00000    0.20681
2467.50000    0.22382
2468.00000    0.23767
2468.50000    0.24831
2469.00000    0.25572
2469.50000    0.25989
2470.00000    0.26086
2470.50000    0.25869
2471.00000    0.25346
2471.50000    0.24528
2472.00000    0.23427
2472.50000    0.22058
2473.00000    0.20442
2473.50000    0.18602
2474.00000    0.16565
2474.50000    0.14364
2475.00000    0.12035
2475.50000    0.09621
2476.00000    0.07166
2476.50000    0.04718
2477.00000    0.02327
2477.50000    0.00042
2478.00000   -0.02089
2478.50000   -0.04023
2479.00000   -0.05723
2479.50000   -0.07158
2480.00000   -0.08308
2480.50000   -0.09162
2481.00000   -0.09720
2481.50000   -0.09994
2482.00000   -0.10007
2482.50000   -0.09790
2483.00000   -0.09383
2483.50000   -0.08831
2484.00000   -0.08183
2484.50000   -0.07489
2485.00000   -0.06796
2485.50000   -0.06147
2486.00000   -0.05580
2486.50000   -0.05120
2487.00000   -0.04787
2487.50000   -0.04588
2488.00000   -0.04519
2488.50000   -0.04566
2489.00000   -0.04708
2489.50000   -0.04916
2490.00000   -0.05155
2490.50000   -0.05390
2491.00000   -0.05583
2491.50000   -0.05701
2492.00000   -0.05712
2492.50000   -0.05593
2493.00000   -0.05327
2493.50000   -0.04902
2494.00000   -0.04318
2494.50000   -0.03580
2495.00000   -0.02700
2495.50000   -0.01694
2496.00000   -0.00585
2496.50000    0.00604
2497.00000    0.01850
2497.50000    0.03130
2498.00000    0.04422
2498.50000    0.05708
2499.00000    0.06973
2499.50000    0.08206
2500.00000    0.09400
2500.50000    0.10551
2501.00000    0.11657
2501.50000    0.12717
2502.00000    0.13734
2502.50000    0.14707
2503.00000    0.15637
2503.50000    0.16525
2504.00000    0.17368
2504.50000    0.18163
2505.00000    0.18906
2505.50000    0.19591
2506.00000    0.20214
2506.50000    0.20767
2507.00000    0.21245
2507.50000    0.21642
2508.00000    0.21953
2508.50000    0.22175
2509.00000    0.22304
2509.50000    0.22336
2510.00000    0.22269
2510.50000    0.22098
2511.00000    0.21818
2511.50000    0.21424
2512.00000    0.20906
2512.50000    0.20256
2513.00000    0.19463
2513.50000    0.18514
2514.00000    0.17398
2514.50000    0.16102
2515.00000    0.14617
2515.50000    0.12935
2516.00000    0.11053
2516.50000    0.08973
2517.00000    0.06701
2517.50000    0.04252
2518.00000    0.01645
2518.50000   -0.01094
2519.00000   -0.03933
2519.50000   -0.06836
2520.00000   -0.09761
2520.50000   -0.12666
2521.00000   -0.15509
2521.50000   -0.18247
2522.00000   -0.20840
2522.50000   -0.23253
2523.00000   -0.25456
2523.50000   -0.27426
2524.00000   -0.29144
2524.50000   -0.30600
2525.00000   -0.31791
2525.50000   -0.32720
2526.00000   -0.33395
2526.50000   -0.33829
2527.00000   -0.34037
2527.50000   -0.34038
2528.00000   -0.33852
2528.50000   -0.33496
2529.00000   -0.32989
2529.50000   -0.32346
2530.00000   -0.31580
2530.50000   -0.30699
2531.00000   -0.29709
2531.50000   -0.28612
2532.00000   -0.27407
2532.50000   -0.26089
2533.00000   -0.24652
2533.50000   -0.23087
2534.00000   -0.21384
2534.50000   -0.19535
2535.00000   -0.17532
2535.50000   -0.15367
2536.00000   -0.13040
2536.50000   -0.10550
2537.00000   -0.07904
2537.50000   -0.05115
2538.00000   -0.02201
2538.50000    0.00812
2539.00000    0.03892
2539.50000    0.07000
2540.00000    0.10091
2540.50000    0.13115
2541.00000    0.16019
2541.50000    0.18748
2542.00000    0.21245
2542.50000    0.23457
2543.00000    0.25333
2543.50000    0.26830
2544.00000    0.27911
2544.50000    0.28550
2545.00000    0.28729
2545.50000    0.28446
2546.00000    0.27707
2546.50000    0.26532
2547.00000    0.24952
2547.50000    0.23007
2548.00000    0.20747
2548.50000    0.18227
2549.00000    0.15508
2549.50000    0.12651
2550.00000    0.09718
2550.50000    0.06768
2551.00000    0.03855
2551.50000    0.01029
2552.00000   -0.01670
2552.50000   -0.04210
2553.00000   -0.06567
2553.50000   -0.08724
2554.00000   -0.10675
2554.50000   -0.12418
2555.00000   -0.13959
2555.50000   -0.15307
2556.00000   -0.16476
2556.50000   -0.17478
2557.00000   -0.18328
2557.50000   -0.19038
2558.00000   -0.19618
2558.50000   -0.20076
2559.00000   -0.20413
2559.50000   -0.20630
2560.00000   -0.20721
2560.50000   -0.20678
2561.00000   -0.20492
2561.50000   -0.20149
2562.00000   -0.19638
2562.50000   -0.18947
2563.00000   -0.18067
2563.50000   -0.16992
2564.00000   -0.15720
2564.50000   -0.14256
2565.00000   -0.12609
2565.50000   -0.10795
2566.00000   -0.08837
2566.50000   -0.06764
2567.00000   -0.04609
2567.50000   -0.02410
2568.00000   -0.00207
2568.50000    0.01956
2569.00000    0.04040
2569.50000    0.06005
2570.00000    0.07816
2570.50000    0.09441
2571.00000    0.10859
2571.50000    0.12053
2572.00000    0.13014
2572.50000    0.13742
2573.00000    0.14245
2573.50000    0.14537
2574.00000    0.14640
2574.50000    0.14577
2575.00000    0.14378
2575.50000    0.14071
2576.00000    0.13688
2576.50000    0.13256
2577.00000    0.12801
2577.50000    0.12345
2578.00000    0.11908
2578.50000    0.11503
2579.00000    0.11140
2579.50000    0.10826
2580.00000    0.10564
2580.50000    0.10356
2581.00000    0.10201
2581.50000    0.10100
2582.00000    0.10052
2582.50000    0.10059
2583.00000    0.10123
2583.50000    0.10247
2584.00000    0.10437
2584.50000    0.10697
2585.00000    0.11032
2585.50000    0.11447
2586.00000    0.11942
2586.50000    0.12518
2587.00000    0.13169
2587.50000    0.13888
2588.00000    0.14660
2588.50000    0.15468
2589.00000    0.16292
2589.50000    0.17105
2590.00000    0.17880
2590.50000    0.18589
2591.00000    0.19202
2591.50000    0.19693
2592.00000    0.20035
2592.50000    0.20208
2593.00000    0.20195
2593.50000    0.19983
2594.00000    0.19567
2594.50000    0.18946
2595.00000    0.18123
2595.50000    0.17107
2596.00000    0.15909
2596.50000    0.14544
2597.00000    0.13027
2597.50000    0.11375
2598.00000    0.09603
2598.50000    0.07725
2599.00000    0.05756
2599.50000    0.03708
2600.00000    0.01591
2600.50000   -0.00585
2601.00000   -0.02809
2601.50000   -0.05069
2602.00000   -0.07353
2602.50000   -0.09644
2603.00000   -0.11924
2603.50000   -0.14170
2604.00000   -0.16354
2604.50000   -0.18448
2605.00000   -0.20418
2605.50000   -0.22229
2606.00000   -0.23848
2606.50000   -0.25241
2607.00000   -0.26377
2607.50000   -0.27232
2608.00000   -0.27788
2608.50000   -0.28034
2609.00000   -0.27970
2609.50000   -0.27606
2610.00000   -0.26960
2610.50000   -0.26063
2611.00000   -0.24952
2611.50000   -0.23674
2612.00000   -0.22280
2612.50000   -0.20826
2613.00000   -0.19368
2613.50000   -0.17960
2614.00000   -0.16653
2614.50000   -0.15494
2615.00000   -0.14518
2615.50000   -0.13754
2616.00000   -0.13219
2616.50000   -0.12922
2617.00000   -0.12858
2617.50000   -0.13014
2618.00000   -0.13369
2618.50000   -0.13894
2619.00000   -0.14553
2619.50000   -0.15309
2620.00000   -0.16120
2620.50000   -0.16944
2621.00000   -0.17743
2621.50000   -0.18477
2622.00000   -0.19114
2622.50000   -0.19623
2623.00000   -0.19977
2623.50000   -0.20158
2624.00000   -0.20148
2624.50000   -0.19936
2625.00000   -0.19514
2625.50000   -0.18878
2626.00000   -0.18028
2626.50000   -0.16968
2627.00000   -0.15701
2627.50000   -0.14238
2628.00000   -0.12589
2628.50000   -0.10769
2629.00000   -0.08795
2629.50000   -0.06688
2630.00000   -0.04469
2630.50000   -0.02166
2631.00000    0.00192
2631.50000    0.02575
2632.00000    0.04948
2632.50000    0.07279
2633.00000    0.09530
2633.50000    0.11669
2634.00000    0.13662
2634.50000    0.15478
2635.00000    0.17091
2635.50000    0.18477
2636.00000    0.19619
2636.50000    0.20505
2637.00000    0.21131
2637.50000    0.21498
2638.00000    0.21616
2638.50000    0.21499
2639.00000    0.21173
2639.50000    0.20666
2640.00000    0.20013
2640.50000    0.19257
2641.00000    0.18443
2641.50000    0.17621
2642.00000    0.16843
2642.50000    0.16165
2643.00000    0.15642
2643.50000    0.15331
2644.00000    0.15287
2644.50000    0.15563
2645.00000    0.16211
2645.50000    0.17279
2646.00000    0.18811
2646.50000    0.20847
2647.00000    0.23422
2647.50000    0.26564
2648.00000    0.30299
2648.50000    0.34644
2649.00000    0.39613
2649.50000    0.45213
2650.00000    0.51447
2650.50000    0.58312
2651.00000    0.65801
2651.50000    0.73903
2652.00000    0.82602
2652.50000    0.91879
2653.00000    1.01711
2653.50000    1.12074
2654.00000    1.22938
2654.50000    1.34273
2655.00000    1.46045
2655.50000    1.58220
2656.00000    1.70762
2656.50000    1.83633
2657.00000    1.96797
2657.50000    2.10219
2658.00000    2.23865
2658.50000    2.37703
2659.00000    2.51708
2659.50000    2.65857
2660.00000    2.80136
2660.50000    2.94536
2661.00000    3.09056
2661.50000    3.23703
2662.00000    3.38495
2662.50000    3.53452
2663.00000    3.68607
2663.50000    3.83995
2664.00000    3.99656
2664.50000    4.15634
2665.00000    4.31971
2665.50000    4.48710
2666.00000    4.65886
2666.50000    4.83531
2667.00000    5.01665
2667.50000    5.20301
2668.00000    5.39436
2668.50000    5.59057
2669.00000    5.79135
2669.50000    5.99629
2670.00000    6.20483
2670.50000    6.41630
2671.00000    6.62991
2671.50000    6.84477
2672.00000    7.05993
2672.50000    7.27437
2673.00000    7.48703
2673.50000    7.69685
2674.00000    7.90276
2674.50000    8.10371
2675.00000    8.29869
2675.50000    8.48672
2676.00000    8.66688
2676.50000    8.83832
2677.00000    9.00024
2677.50000    9.15190
2678.00000    9.29264
2678.50000    9.42186
2679.00000    9.53902
2679.50000    9.64366
2680.00000    9.73537
2680.50000    9.81382
2681.00000    9.87872
2681.50000    9.92989
2682.00000    9.96719
2682.50000    9.99055
2683.00000   10.00000
2683.50000    9.99561
2684.00000    9.97753
2684.50000    9.94598
2685.00000    9.90125
2685.50000    9.84365
2686.00000    9.77357
2686.50000    9.69141
2687.00000    9.59763
2687.50000    9.49265
2688.00000    9.37696
2688.50000    9.25100
2689.00000    9.11524
2689.50000    8.97012
2690.00000    8.81609
2690.50000    8.65356
2691.00000    8.48299
2691.50000    8.30479
2692.00000    8.11944
2692.50000    7.92739
2693.00000    7.72918
2693.50000    7.52535
2694.00000    7.31652
2694.50000    7.10336
2695.00000    6.88659
2695.50000    6.66702
2696.00000    6.44548
2696.50000    6.22287
2697.00000    6.00012
2697.50000    5.77817
2698.00000    5.55797
2698.50000    5.34043
2699.00000    5.12645
2699.50000    4.91685
2700.00000    4.71237
2700.50000    4.51369
2701.00000    4.32136
2701.50000    4.13581
2702.00000    3.95740
2702.50000    3.78634
2703.00000    3.62275
2703.50000    3.46665
2704.00000    3.31799
2704.50000    3.17663
2705.00000    3.04238
2705.50000    2.91503
2706.00000    2.79431
2706.50000    2.67996
2707.00000    2.57172
2707.50000    2.46933
2708.00000    2.37253
2708.50000    2.28111
2709.00000    2.19485
2709.50000    2.11356
2710.00000    2.03705
2710.50000    1.96515
2711.00000    1.89769
2711.50000    1.83449
2712.00000    1.77539
2712.50000    1.72019
2713.00000    1.66868
2713.50000    1.62063
2714.00000    1.57581
2714.50000    1.53393
2715.00000    1.49471
2715.50000    1.45784
2716.00000    1.42298
2716.50000    1.38980
2717.00000    1.35794
2717.50000    1.32704
2718.00000    1.29674
2718.50000    1.26671
2719.00000    1.23660
2719.50000    1.20613
2720.00000    1.17502
2720.50000    1.14303
2721.00000    1.10999
2721.50000    1.07574
2722.00000    1.04021
2722.50000    1.00336
2723.00000    0.96521
2723.50000    0.92583
2724.00000    0.88534
2724.50000    0.84389
2725.00000    0.80166
2725.50000    0.75886
2726.00000    0.71573
2726.50000    0.67250
2727.00000    0.62942
2727.50000    0.58672
2728.00000    0.54465
2728.50000    0.50345
2729.00000    0.46336
2729.50000    0.42459
2730.00000    0.38739
2730.50000    0.35199
2731.00000    0.31861
2731.50000    0.28748
2732.00000    0.25883
2732.50000    0.23289
2733.00000    0.20984
2733.50000    0.18987
2734.00000    0.17311
2734.50000    0.15966
2735.00000    0.14954
2735.50000    0.14272
2736.00000    0.13909
2736.50000    0.13843
2737.00000    0.14046
2737.50000    0.14483
2738.00000    0.15108
2738.50000    0.15872
2739.00000    0.16719
2739.50000    0.17592
2740.00000    0.18430
2740.50000    0.19174
2741.00000    0.19770
2741.50000    0.20164
2742.00000    0.20311
2742.50000    0.20170
2743.00000    0.19709
2743.50000    0.18904
2744.00000    0.17737
2744.50000    0.16198
2745.00000    0.14285
2745.50000    0.12001
2746.00000    0.09356
2746.50000    0.06366
2747.00000    0.03054
2747.50000   -0.00555
2748.00000   -0.04425
2748.50000   -0.08520
2749.00000   -0.12791
2749.50000   -0.17188
2750.00000   -0.21650
2750.50000   -0.26112
2751.00000   -0.30502
2751.50000   -0.34742
2752.00000   -0.38751
2752.50000   -0.42445
2753.00000   -0.45742
2753.50000   -0.48561
2754.00000   -0.50826
2754.50000   -0.52468
2755.00000   -0.53430
2755.50000   -0.53665
2756.00000   -0.53142
2756.50000   -0.51844
2757.00000   -0.49770
2757.50000   -0.46933
2758.00000   -0.43364
2758.50000   -0.39104
2759.00000   -0.34208
2759.50000   -0.28740
2760.00000   -0.22771
2760.50000   -0.16379
2761.00000   -0.09642
2761.50000   -0.02644
2762.00000    0.04536
2762.50000    0.11818
2763.00000    0.19123
2763.50000    0.26378
2764.00000    0.33511
2764.50000    0.40452
2765.00000    0.47138
2765.50000    0.53506
2766.00000    0.59499
2766.50000    0.65063
2767.00000    0.70149
2767.50000    0.74716
2768.00000    0.78726
2768.50000    0.82151
2769.00000    0.84971
2769.50000    0.87176
2770.00000    0.88764
2770.50000    0.89746
2771.00000    0.90140
2771.50000    0.89975
2772.00000    0.89289
2772.50000    0.88125
2773.00000    0.86533
2773.50000    0.84565
2774.00000    0.82274
2774.50000    0.79713
2775.00000    0.76932
2775.50000    0.73975
2776.00000    0.70883
2776.50000    0.67687
2777.00000    0.64414
2777.50000    0.61082
2778.00000    0.57705
2778.50000    0.54291
2779.00000    0.50843
2779.50000    0.47365
2780.00000    0.43858
2780.50000    0.40326
2781.00000    0.36775
2781.50000    0.33214
2782.00000    0.29659
2782.50000    0.26130
2783.00000    0.22652
2783.50000    0.19256
2784.00000    0.15976
2784.50000    0.12849
2785.00000    0.09916
2785.50000    0.07215
2786.00000    0.04786
2786.50000    0.02664
2787.00000    0.00881
2787.50000   -0.00537
2788.00000   -0.01567
2788.50000   -0.02198
2789.00000   -0.02420
2789.50000   -0.02235
2790.00000   -0.01648
2790.50000   -0.00672
2791.00000    0.00674
2791.50000    0.02367
2792.00000    0.04381
2792.50000    0.06686
2793.00000    0.09252
2793.50000    0.12047
2794.00000    0.15037
2794.50000    0.18191
2795.00000    0.21477
2795.50000    0.24865
2796.00000    0.28324
2796.50000    0.31824
2797.00000    0.35336
2797.50000    0.38828
2798.00000    0.42271
2798.50000    0.45630
2799.00000    0.48873
2799.50000    0.51962
2800.00000    0.54859
2800.50000    0.57524
2801.00000    0.59915
2801.50000    0.61992
2802.00000    0.63711
2802.50000    0.65033
2803.00000    0.65921
2803.50000    0.66342
2804.00000    0.66269
2804.50000    0.65681
2805.00000    0.64568
2805.50000    0.62926
2806.00000    0.60765
2806.50000    0.58101
2807.00000    0.54963
2807.50000    0.51389
2808.00000    0.47426
2808.50000    0.43128
2809.00000    0.38556
2809.50000    0.33774
2810.00000    0.28851
2810.50000    0.23854
2811.00000    0.18853
2811.50000    0.13914
2812.00000    0.09098
2812.50000    0.04465
2813.00000    0.00066
2813.50000   -0.04050
2814.00000   -0.07842
2814.50000   -0.11275
2815.00000   -0.14320
2815.50000   -0.16951
2816.00000   -0.19151
2816.50000   -0.20905
2817.00000   -0.22203
2817.50000   -0.23043
2818.00000   -0.23424
2818.50000   -0.23351
2819.00000   -0.22837
2819.50000   -0.21896
2820.00000   -0.20550
2820.50000   -0.18828
2821.00000   -0.16764
2821.50000   -0.14396
2822.00000   -0.11771
2822.50000   -0.08937
2823.00000   -0.05949
2823.50000   -0.02861
2824.00000    0.00268
2824.50000    0.03382
2825.00000    0.06427
2825.50000    0.09352
2826.00000    0.12111
2826.50000    0.14665
2827.00000    0.16981
2827.50000    0.19035
2828.00000    0.20809
2828.50000    0.22294
2829.00000    0.23485
2829.50000    0.24385
2830.00000    0.24998
2830.50000    0.25333
2831.00000    0.25400
2831.50000    0.25206
2832.00000    0.24761
2832.50000    0.24069
2833.00000    0.23136
2833.50000    0.21962
2834.00000    0.20550
2834.50000    0.18898
2835.00000    0.17009
2835.50000    0.14886
2836.00000    0.12537
2836.50000    0.09975
2837.00000    0.07219
2837.50000    0.04296
2838.00000    0.01241
2838.50000   -0.01904
2839.00000   -0.05089
2839.50000   -0.08259
2840.00000   -0.11355
2840.50000   -0.14316
2841.00000   -0.17082
2841.50000   -0.19593
2842.00000   -0.21799
2842.50000   -0.23656
2843.00000   -0.25127
2843.50000   -0.26192
2844.00000   -0.26840
2844.50000   -0.27072
2845.00000   -0.26905
2845.50000   -0.26364
2846.00000   -0.25488
2846.50000   -0.24321
2847.00000   -0.22916
2847.50000   -0.21327
2848.00000   -0.19611
2848.50000   -0.17822
2849.00000   -0.16012
2849.50000   -0.14226
2850.00000   -0.12502
2850.50000   -0.10870
2851.00000   -0.09352
2851.50000   -0.07961
2852.00000   -0.06700
2852.50000   -0.05566
2853.00000   -0.04549
2853.50000   -0.03634
2854.00000   -0.02802
2854.50000   -0.02034
2855.00000   -0.01308
2855.50000   -0.00607
2856.00000    0.00085
2856.50000    0.00778
2857.00000    0.01480
2857.50000    0.02189
2858.00000    0.02901
2858.50000    0.03604
2859.00000    0.04282
2859.50000    0.04915
2860.00000    0.05481
2860.50000    0.05957
2861.00000    0.06321
2861.50000    0.06553
2862.00000    0.06641
2862.50000    0.06576
2863.00000    0.06357
2863.50000    0.05994
2864.00000    0.05506
2864.50000    0.04918
2865.00000    0.04267
2865.50000    0.03595
2866.00000    0.02950
2866.50000    0.02381
2867.00000    0.01939
2867.50000    0.01672
2868.00000    0.01621
2868.50000    0.01821
2869.00000    0.02293
2869.50000    0.03050
2870.00000    0.04089
2870.50000    0.05395
2871.00000    0.06937
2871.50000    0.08675
2872.00000    0.10558
2872.50000    0.12526
2873.00000    0.14515
2873.50000    0.16457
2874.00000    0.18288
2874.50000    0.19944
2875.00000    0.21371
2875.50000    0.22521
2876.00000    0.23357
2876.50000    0.23854
2877.00000    0.23996
2877.50000    0.23780
2878.00000    0.23214
2878.50000    0.22312
2879.00000    0.21097
2879.50000    0.19596
2880.00000    0.17842
2880.50000    0.15868
2881.00000    0.13705
2881.50000    0.11386
2882.00000    0.08940
2882.50000    0.06394
2883.00000    0.03773
2883.50000    0.01096
2884.00000   -0.01616
2884.50000   -0.04347
2885.00000   -0.07079
2885.50000   -0.09797
2886.00000   -0.12484
2886.50000   -0.15123
2887.00000   -0.17694
2887.50000   -0.20179
2888.00000   -0.22554
2888.50000   -0.24797
2889.00000   -0.26885
2889.50000   -0.28792
2890.00000   -0.30494
2890.50000   -0.31965
2891.00000   -0.33181
2891.50000   -0.34117
2892.00000   -0.34750
2892.50000   -0.35059
2893.00000   -0.35023
2893.50000   -0.34626
2894.00000   -0.33853
2894.50000   -0.32694
2895.00000   -0.31143
2895.50000   -0.29200
2896.00000   -0.26872
2896.50000   -0.24173
2897.00000   -0.21129
2897.50000   -0.17771
2898.00000   -0.14144
2898.50000   -0.10300
2899.00000   -0.06304
2899.50000   -0.02228
2900.00000    0.01850
2900.50000    0.05846
2901.00000    0.09674
2901.50000    0.13248
2902.00000    0.16490
2902.50000    0.19327
2903.00000    0.21701
2903.50000    0.23566
2904.00000    0.24896
2904.50000    0.25684
2905.00000    0.25942
2905.50000    0.25704
2906.00000    0.25021
2906.50000    0.23962
2907.00000    0.22609
2907.50000    0.21054
2908.00000    0.19393
2908.50000    0.17724
2909.00000    0.16138
2909.50000    0.14718
2910.00000    0.13532
2910.50000    0.12635
2911.00000    0.12058
2911.50000    0.11815
2912.00000    0.11900
2912.50000    0.12288
2913.00000    0.12937
2913.50000    0.13792
2914.00000    0.14788
2914.50000    0.15856
2915.00000    0.16924
2915.50000    0.17927
2916.00000    0.18804
2916.50000    0.19505
2917.00000    0.19992
2917.50000    0.20242
2918.00000    0.20243
2918.50000    0.19999
2919.00000    0.19521
2919.50000    0.18833
2920.00000    0.17963
2920.50000    0.16941
2921.00000    0.15800
2921.50000    0.14568
2922.00000    0.13271
2922.50000    0.11927
2923.00000    0.10547
2923.50000    0.09135
2924.00000    0.07687
2924.50000    0.06193
2925.00000    0.04640
2925.50000    0.03011
2926.00000    0.01289
2926.50000   -0.00544
2927.00000   -0.02497
2927.50000   -0.04579
2928.00000   -0.06787
2928.50000   -0.09114
2929.00000   -0.11542
2929.50000   -0.14046
2930.00000   -0.16591
2930.50000   -0.19138
2931.00000   -0.21640
2931.50000   -0.24048
2932.00000   -0.26313
2932.50000   -0.28385
2933.00000   -0.30218
2933.50000   -0.31772
2934.00000   -0.33015
2934.50000   -0.33921
2935.00000   -0.34477
2935.50000   -0.34676
2936.00000   -0.34525
2936.50000   -0.34039
2937.00000   -0.33240
2937.50000   -0.32159
2938.00000   -0.30830
2938.50000   -0.29292
2939.00000   -0.27582
2939.50000   -0.25737
2940.00000   -0.23788
2940.50000   -0.21764
2941.00000   -0.19684
2941.50000   -0.17560
2942.00000   -0.15395
2942.50000   -0.13185
2943.00000   -0.10920
2943.50000   -0.08581
2944.00000   -0.06149
2944.50000   -0.03600
2945.00000   -0.00914
2945.50000    0.01927
2946.00000    0.04937
2946.50000    0.08120
2947.00000    0.11471
2947.50000    0.14974
2948.00000    0.18605
2948.50000    0.22324
2949.00000    0.26086
2949.50000    0.29835
2950.00000    0.33509
2950.50000    0.37044
2951.00000    0.40371
2951.50000    0.43428
2952.00000    0.46154
2952.50000    0.48495
2953.00000    0.50408
2953.50000    0.51859
2954.00000    0.52829
2954.50000    0.53308
2955.00000    0.53301
2955.50000    0.52823
2956.00000    0.51901
2956.50000    0.50573
2957.00000    0.48881
2957.50000    0.46877
2958.00000    0.44614
2958.50000    0.42147
2959.00000    0.39534
2959.50000    0.36827
2960.00000    0.34078
2960.50000    0.31334
2961.00000    0.28637
2961.50000    0.26022
2962.00000    0.23520
2962.50000    0.21156
2963.00000    0.18947
2963.50000    0.16907
2964.00000    0.15043
2964.50000    0.13360
2965.00000    0.11855
2965.50000    0.10525
2966.00000    0.09363
2966.50000    0.08360
2967.00000    0.07504
2967.50000    0.06783
2968.00000    0.06182
2968.50000    0.05688
2969.00000    0.05286
2969.50000    0.04963
2970.00000    0.04703
2970.50000    0.04494
2971.00000    0.04324
2971.50000    0.04182
2972.00000    0.04060
2972.50000    0.03949
2973.00000    0.03844
2973.50000    0.03740
2974.00000    0.03633
2974.50000    0.03523
2975.00000    0.03409
2975.50000    0.03291
2976.00000    0.03169
2976.50000    0.03046
2977.00000    0.02921
2977.50000    0.02796
2978.00000    0.02670
2978.50000    0.02542
2979.00000    0.02410
2979.50000    0.02270
2980.00000    0.02118
2980.50000    0.01947
2981.00000    0.01752
2981.50000    0.01525
2982.00000    0.01257
2982.50000    0.00941
2983.00000    0.00569
2983.50000    0.00135
2984.00000   -0.00366
2984.50000   -0.00939
2985.00000   -0.01583
2985.50000   -0.02297
2986.00000   -0.03076
2986.50000   -0.03912
2987.00000   -0.04791
2987.50000   -0.05698
2988.00000   -0.06615
2988.50000   -0.07517
2989.00000   -0.08381
2989.50000   -0.09180
2990.00000   -0.09885
2990.50000   -0.10468
2991.00000   -0.10903
2991.50000   -0.11164
2992.00000   -0.11229
2992.50000   -0.11081
2993.00000   -0.10707
2993.50000   -0.10100
2994.00000   -0.09258
2994.50000   -0.08187
2995.00000   -0.06898
2995.50000   -0.05409
2996.00000   -0.03740
2996.50000   -0.01918
2997.00000    0.00031
2997.50000    0.02078
2998.00000    0.04194
2998.50000    0.06356
2999.00000    0.08540
2999.50000    0.10733
