1200.50000    0.03162
1201.00000    0.02681
1201.50000    0.02193
1202.00000    0.01693
1202.50000    0.01176
1203.00000    0.00636
1203.50000    0.00071
1204.00000   -0.00521
1204.50000   -0.01138
1205.00000   -0.01778
1205.50000   -0.02433
1206.00000   -0.03096
1206.50000   -0.03752
1207.00000   -0.04389
1207.50000   -0.04988
1208.00000   -0.05532
1208.50000   -0.06001
1209.00000   -0.06374
1209.50000   -0.06632
1210.00000   -0.06755
1210.50000   -0.06729
1211.00000   -0.06538
1211.50000   -0.06172
1212.00000   -0.05625
1212.50000   -0.04896
1213.00000   -0.03987
1213.50000   -0.02909
1214.00000   -0.01675
1214.50000   -0.00304
1215.00000    0.01179
1215.50000    0.02748
1216.00000    0.04370
1216.50000    0.06012
1217.00000    0.07637
1217.50000    0.09210
1218.00000    0.10694
1218.50000    0.12055
1219.00000    0.13261
1219.50000    0.14285
1220.00000    0.15103
1220.50000    0.15698
1221.00000    0.16056
1221.50000    0.16172
1222.00000    0.16046
1222.50000    0.15683
1223.00000    0.15094
1223.50000    0.14296
1224.00000    0.13309
1224.50000    0.12157
1225.00000    0.10869
1225.50000    0.09471
1226.00000    0.07994
1226.50000    0.06467
1227.00000    0.04916
1227.50000    0.03368
1228.00000    0.01846
1228.50000    0.00369
1229.00000   -0.01046
1229.50000   -0.02387
1230.00000   -0.03644
1230.50000   -0.04813
1231.00000   -0.05890
1231.50000   -0.06876
1232.00000   -0.07773
1232.50000   -0.08585
1233.00000   -0.09317
1233.50000   -0.09975
1234.00000   -0.10565
1234.50000   -0.11092
1235.00000   -0.11561
1235.50000   -0.11976
1236.00000   -0.12338
1236.50000   -0.12650
1237.00000   -0.12911
1237.50000   -0.13119
1238.00000   -0.13273
1238.50000   -0.13370
1239.00000   -0.13407
1239.50000   -0.13379
1240.00000   -0.13281
1240.50000   -0.13111
1241.00000   -0.12864
1241.50000   -0.12535
1242.00000   -0.12122
1242.50000   -0.11622
1243.00000   -0.11030
1243.50000   -0.10347
1244.00000   -0.09568
1244.50000   -0.08695
1245.00000   -0.07726
1245.50000   -0.06662
1246.00000   -0.05505
1246.50000   -0.04258
1247.00000   -0.02926
1247.50000   -0.01515
1248.00000   -0.00034
1248.50000    0.01507
1249.00000    0.03094
1249.50000    0.04712
1250.00000    0.06343
1250.50000    0.07967
1251.00000    0.09561
1251.50000    0.11102
1252.00000    0.12564
1252.50000    0.13921
1253.00000    0.15148
1253.50000    0.16219
1254.00000    0.17112
1254.50000    0.17806
1255.00000    0.18285
1255.50000    0.18534
1256.00000    0.18545
1256.50000    0.18316
1257.00000    0.17847
1257.50000    0.17146
1258.00000    0.16226
1258.50000    0.15104
1259.00000    0.13803
1259.50000    0.12348
1260.00000    0.10769
1260.50000    0.09097
1261.00000    0.07364
1261.50000    0.05602
1262.00000    0.03844
1262.50000    0.02119
1263.00000    0.00453
1263.50000   -0.01128
1264.00000   -0.02605
1264.50000   -0.03962
1265.00000   -0.05186
1265.50000   -0.06271
1266.00000   -0.07211
1266.50000   -0.08006
1267.00000   -0.08659
1267.50000   -0.09176
1268.00000   -0.09563
1268.50000   -0.09830
1269.00000   -0.09985
1269.50000   -0.10038
1270.00000   -0.09998
1270.50000   -0.09874
1271.00000   -0.09675
1271.50000   -0.09407
1272.00000   -0.09077
1272.50000   -0.08691
1273.00000   -0.08253
1273.50000   -0.07770
1274.00000   -0.07246
1274.50000   -0.06687
1275.00000   -0.06101
1275.50000   -0.05494
1276.00000   -0.04875
1276.50000   -0.04255
1277.00000   -0.03644
1277.50000   -0.03056
1278.00000   -0.02503
1278.50000   -0.02000
1279.00000   -0.01560
1279.50000   -0.01196
1280.00000   -0.00922
1280.50000   -0.00748
1281.00000   -0.00683
1281.50000   -0.00735
1282.00000   -0.00907
1282.50000   -0.01201
1283.00000   -0.01616
1283.50000   -0.02146
1284.00000   -0.02784
1284.50000   -0.03519
1285.00000   -0.04337
1285.50000   -0.05224
1286.00000   -0.06162
1286.50000   -0.07132
1287.00000   -0.08114
1287.50000   -0.09088
1288.00000   -0.10034
1288.50000   -0.10932
1289.00000   -0.11761
1289.50000   -0.12504
1290.00000   -0.13142
1290.50000   -0.13660
1291.00000   -0.14042
1291.50000   -0.14274
1292.00000   -0.14346
1292.50000   -0.14245
1293.00000   -0.13966
1293.50000   -0.13501
1294.00000   -0.12847
1294.50000   -0.12004
1295.00000   -0.10973
1295.50000   -0.09761
1296.00000   -0.08376
1296.50000   -0.06831
1297.00000   -0.05143
1297.50000   -0.03332
1298.00000   -0.01424
1298.50000    0.00555
1299.00000    0.02574
1299.50000    0.04597
1300.00000    0.06590
1300.50000    0.08516
1301.00000    0.10337
1301.50000    0.12017
1302.00000    0.13521
1302.50000    0.14817
1303.00000    0.15878
1303.50000    0.16682
1304.00000    0.17211
1304.50000    0.17454
1305.00000    0.17407
1305.50000    0.17074
1306.00000    0.16463
1306.50000    0.15591
1307.00000    0.14480
1307.50000    0.13156
1308.00000    0.11651
1308.50000    0.10001
1309.00000    0.08241
1309.50000    0.06413
1310.00000    0.04554
1310.50000    0.02704
1311.00000    0.00901
1311.50000   -0.00819
1312.00000   -0.02423
1312.50000   -0.03880
1313.00000   -0.05162
1313.50000   -0.06243
1314.00000   -0.07101
1314.50000   -0.07716
1315.00000   -0.08071
1315.50000   -0.08148
1316.00000   -0.07935
1316.50000   -0.07420
1317.00000   -0.06590
1317.50000   -0.05436
1318.00000   -0.03950
1318.50000   -0.02125
1319.00000    0.00045
1319.50000    0.02564
1320.00000    0.05434
1320.50000    0.08657
1321.00000    0.12230
1321.50000    0.16152
1322.00000    0.20418
1322.50000    0.25022
1323.00000    0.29957
1323.50000    0.35216
1324.00000    0.40792
1324.50000    0.46677
1325.00000    0.52867
1325.50000    0.59356
1326.00000    0.66143
1326.50000    0.73228
1327.00000    0.80615
1327.50000    0.88309
1328.00000    0.96319
1328.50000    1.04656
1329.00000    1.13332
1329.50000    1.22360
1330.00000    1.31753
1330.50000    1.41522
1331.00000    1.51677
1331.50000    1.62222
1332.00000    1.73156
1332.50000    1.84472
1333.00000    1.96155
1333.50000    2.08181
1334.00000    2.20518
1334.50000    2.33121
1335.00000    2.45939
1335.50000    2.58907
1336.00000    2.71953
1336.50000    2.84996
1337.00000    2.97947
1337.50000    3.10710
1338.00000    3.23187
1338.50000    3.35275
1339.00000    3.46872
1339.50000    3.57878
1340.00000    3.68197
1340.50000    3.77737
1341.00000    3.86417
1341.50000    3.94163
1342.00000    4.00913
1342.50000    4.06618
1343.00000    4.11241
1343.50000    4.14760
1344.00000    4.17165
1344.50000    4.18462
1345.00000    4.18670
1345.50000    4.17818
1346.00000    4.15950
1346.50000    4.13119
1347.00000    4.09385
1347.50000    4.04818
1348.00000    3.99490
1348.50000    3.93477
1349.00000    3.86858
1349.50000    3.79709
1350.00000    3.72105
1350.50000    3.64118
1351.00000    3.55815
1351.50000    3.47258
1352.00000    3.38503
1352.50000    3.29600
1353.00000    3.20594
1353.50000    3.11521
1354.00000    3.02414
1354.50000    2.93302
1355.00000    2.84206
1355.50000    2.75147
1356.00000    2.66142
1356.50000    2.57206
1357.00000    2.48355
1357.50000    2.39600
1358.00000    2.30957
1358.50000    2.22440
1359.00000    2.14063
1359.50000    2.05840
1360.00000    1.97788
1360.50000    1.89921
1361.00000    1.82253
1361.50000    1.74799
1362.00000    1.67570
1362.50000    1.60577
1363.00000    1.53827
1363.50000    1.47325
1364.00000    1.41072
1364.50000    1.35065
1365.00000    1.29301
1365.50000    1.23768
1366.00000    1.18455
1366.50000    1.13347
1367.00000    1.08425
1367.50000    1.03670
1368.00000    0.99063
1368.50000    0.94582
1369.00000    0.90208
1369.50000    0.85920
1370.00000    0.81703
1370.50000    0.77542
1371.00000    0.73424
1371.50000    0.69341
1372.00000    0.65289
1372.50000    0.61266
1373.00000    0.57275
1373.50000    0.53322
1374.00000    0.49417
1374.50000    0.45571
1375.00000    0.41800
1375.50000    0.38120
1376.00000    0.34549
1376.50000    0.31106
1377.00000    0.27807
1377.50000    0.24672
1378.00000    0.21716
1378.50000    0.18953
1379.00000    0.16396
1379.50000    0.14053
1380.00000    0.11932
1380.50000    0.10035
1381.00000    0.08363
1381.50000    0.06912
1382.00000    0.05676
1382.50000    0.04645
1383.00000    0.03806
1383.50000    0.03145
1384.00000    0.02645
1384.50000    0.02285
1385.00000    0.02044
1385.50000    0.01902
1386.00000    0.01834
1386.50000    0.01819
1387.00000    0.01834
1387.50000    0.01857
1388.00000    0.01867
1388.50000    0.01846
1389.00000    0.01778
1389.50000    0.01647
1390.00000    0.01445
1390.50000    0.01162
1391.00000    0.00795
1391.50000    0.00344
1392.00000   -0.00188
1392.50000   -0.00793
1393.00000   -0.01461
1393.50000   -0.02176
1394.00000   -0.02921
1394.50000   -0.03676
1395.00000   -0.04420
1395.50000   -0.05130
1396.00000   -0.05784
1396.50000   -0.06359
1397.00000   -0.06836
1397.50000   -0.07196
1398.00000   -0.07427
1398.50000   -0.07518
1399.00000   -0.07463
1399.50000   -0.07262
1400.00000   -0.06921
1400.50000   -0.06448
1401.00000   -0.05860
1401.50000   -0.05175
1402.00000   -0.04418
1402.50000   -0.03614
1403.00000   -0.02792
1403.50000   -0.01983
1404.00000   -0.01214
1404.50000   -0.00513
1405.00000    0.00093
1405.50000    0.00583
1406.00000    0.00940
1406.50000    0.01149
1407.00000    0.01204
1407.50000    0.01100
1408.00000    0.00840
1408.50000    0.00431
1409.00000   -0.00115
1409.50000   -0.00785
1410.00000   -0.01560
1410.50000   -0.02421
1411.00000   -0.03347
1411.50000   -0.04318
1412.00000   -0.05313
1412.50000   -0.06314
1413.00000   -0.07305
1413.50000   -0.08270
1414.00000   -0.09199
1414.50000   -0.10081
1415.00000   -0.10912
1415.50000   -0.11685
1416.00000   -0.12399
1416.50000   -0.13052
1417.00000   -0.13644
1417.50000   -0.14176
1418.00000   -0.14649
1418.50000   -0.15064
1419.00000   -0.15419
1419.50000   -0.15716
1420.00000   -0.15952
1420.50000   -0.16125
1421.00000   -0.16232
1421.50000   -0.16268
1422.00000   -0.16231
1422.50000   -0.16115
1423.00000   -0.15915
1423.50000   -0.15626
1424.00000   -0.15245
1424.50000   -0.14767
1425.00000   -0.14189
1425.50000   -0.13508
1426.00000   -0.12724
1426.50000   -0.11835
1427.00000   -0.10842
1427.50000   -0.09746
1428.00000   -0.08551
1428.50000   -0.07262
1429.00000   -0.05884
1429.50000   -0.04426
1430.00000   -0.02898
1430.50000   -0.01312
1431.00000    0.00316
1431.50000    0.01969
1432.00000    0.03627
1432.50000    0.05268
1433.00000    0.06867
1433.50000    0.08399
1434.00000    0.09838
1434.50000    0.11155
1435.00000    0.12326
1435.50000    0.13325
1436.00000    0.14130
1436.50000    0.14724
1437.00000    0.15093
1437.50000    0.15229
1438.00000    0.15131
1438.50000    0.14804
1439.00000    0.14262
1439.50000    0.13524
1440.00000    0.12616
1440.50000    0.11573
1441.00000    0.10432
1441.50000    0.09236
1442.00000    0.08027
1442.50000    0.06852
1443.00000    0.05753
1443.50000    0.04771
1444.00000    0.03939
1444.50000    0.03287
1445.00000    0.02834
1445.50000    0.02593
1446.00000    0.02566
1446.50000    0.02745
1447.00000    0.03115
1447.50000    0.03650
1448.00000    0.04319
1448.50000    0.05083
1449.00000    0.05899
1449.50000    0.06722
1450.00000    0.07508
1450.50000    0.08211
1451.00000    0.08793
1451.50000    0.09217
1452.00000    0.09455
1452.50000    0.09485
1453.00000    0.09297
1453.50000    0.08884
1454.00000    0.08251
1454.50000    0.07410
1455.00000    0.06379
1455.50000    0.05185
1456.00000    0.03857
1456.50000    0.02430
1457.00000    0.00938
1457.50000   -0.00579
1458.00000   -0.02085
1458.50000   -0.03544
1459.00000   -0.04921
1459.50000   -0.06185
1460.00000   -0.07307
1460.50000   -0.08264
1461.00000   -0.09035
1461.50000   -0.09603
1462.00000   -0.09957
1462.50000   -0.10087
1463.00000   -0.09990
1463.50000   -0.09665
1464.00000   -0.09114
1464.50000   -0.08345
1465.00000   -0.07368
1465.50000   -0.06199
1466.00000   -0.04855
1466.50000   -0.03358
1467.00000   -0.01736
1467.50000   -0.00016
1468.00000    0.01768
1468.50000    0.03582
1469.00000    0.05389
1469.50000    0.07151
1470.00000    0.08829
1470.50000    0.10386
1471.00000    0.11787
1471.50000    0.12999
1472.00000    0.13995
1472.50000    0.14751
1473.00000    0.15251
1473.50000    0.15486
1474.00000    0.15452
1474.50000    0.15155
1475.00000    0.14607
1475.50000    0.13825
1476.00000    0.12835
1476.50000    0.11667
1477.00000    0.10355
1477.50000    0.08936
1478.00000    0.07451
1478.50000    0.05938
1479.00000    0.04436
1479.50000    0.02983
1480.00000    0.01613
1480.50000    0.00356
1481.00000   -0.00762
1481.50000   -0.01722
1482.00000   -0.02508
1482.50000   -0.03111
1483.00000   -0.03529
1483.50000   -0.03763
1484.00000   -0.03820
1484.50000   -0.03714
1485.00000   -0.03460
1485.50000   -0.03081
1486.00000   -0.02599
1486.50000   -0.02043
1487.00000   -0.01442
1487.50000   -0.00825
1488.00000   -0.00226
1488.50000    0.00325
1489.00000    0.00798
1489.50000    0.01164
1490.00000    0.01398
1490.50000    0.01478
1491.00000    0.01388
1491.50000    0.01115
1492.00000    0.00655
1492.50000    0.00009
1493.00000   -0.00815
1493.50000   -0.01802
1494.00000   -0.02930
1494.50000   -0.04171
1495.00000   -0.05492
1495.50000   -0.06857
1496.00000   -0.08226
1496.50000   -0.09559
1497.00000   -0.10813
1497.50000   -0.11951
1498.00000   -0.12938
1498.50000   -0.13743
1499.00000   -0.14342
1499.50000   -0.14719
1500.00000   -0.14866
1500.50000   -0.14781
1501.00000   -0.14475
1501.50000   -0.13962
1502.00000   -0.13265
1502.50000   -0.12415
1503.00000   -0.11445
1503.50000   -0.10391
1504.00000   -0.09292
1504.50000   -0.08184
1505.00000   -0.07103
1505.50000   -0.06081
1506.00000   -0.05146
1506.50000   -0.04319
1507.00000   -0.03616
1507.50000   -0.03047
1508.00000   -0.02614
1508.50000   -0.02315
1509.00000   -0.02139
1509.50000   -0.02074
1510.00000   -0.02101
1510.50000   -0.02200
1511.00000   -0.02347
1511.50000   -0.02520
1512.00000   -0.02694
1512.50000   -0.02847
1513.00000   -0.02959
1513.50000   -0.03012
1514.00000   -0.02990
1514.50000   -0.02882
1515.00000   -0.02679
1515.50000   -0.02379
1516.00000   -0.01979
1516.50000   -0.01485
1517.00000   -0.00904
1517.50000   -0.00245
1518.00000    0.00475
1518.50000    0.01240
1519.00000    0.02030
1519.50000    0.02821
1520.00000    0.03589
1520.50000    0.04310
1521.00000    0.04957
1521.50000    0.05506
1522.00000    0.05931
1522.50000    0.06213
1523.00000    0.06333
1523.50000    0.06276
1524.00000    0.06034
1524.50000    0.05604
1525.00000    0.04988
1525.50000    0.04195
1526.00000    0.03241
1526.50000    0.02147
1527.00000    0.00939
1527.50000   -0.00352
1528.00000   -0.01692
1528.50000   -0.03043
1529.00000   -0.04370
1529.50000   -0.05635
1530.00000   -0.06805
1530.50000   -0.07848
1531.00000   -0.08740
1531.50000   -0.09460
1532.00000   -0.09994
1532.50000   -0.10338
1533.00000   -0.10490
1533.50000   -0.10458
1534.00000   -0.10256
1534.50000   -0.09899
1535.00000   -0.09411
1535.50000   -0.08813
1536.00000   -0.08130
1536.50000   -0.07385
1537.00000   -0.06600
1537.50000   -0.05793
1538.00000   -0.04978
1538.50000   -0.04166
1539.00000   -0.03362
1539.50000   -0.02569
1540.00000   -0.01783
1540.50000   -0.01001
1541.00000   -0.00214
1541.50000    0.00584
1542.00000    0.01402
1542.50000    0.02245
1543.00000    0.03115
1543.50000    0.04012
1544.00000    0.04930
1544.50000    0.05857
1545.00000    0.06778
1545.50000    0.07672
1546.00000    0.08515
1546.50000    0.09280
1547.00000    0.09938
1547.50000    0.10462
1548.00000    0.10823
1548.50000    0.10999
1549.00000    0.10970
1549.50000    0.10724
1550.00000    0.10255
1550.50000    0.09566
1551.00000    0.08666
1551.50000    0.07576
1552.00000    0.06322
1552.50000    0.04937
1553.00000    0.03463
1553.50000    0.01944
1554.00000    0.00428
1554.50000   -0.01035
1555.00000   -0.02397
1555.50000   -0.03612
1556.00000   -0.04637
1556.50000   -0.05437
1557.00000   -0.05980
1557.50000   -0.06244
1558.00000   -0.06212
1558.50000   -0.05879
1559.00000   -0.05242
1559.50000   -0.04307
1560.00000   -0.03087
1560.50000   -0.01597
1561.00000    0.00144
1561.50000    0.02114
1562.00000    0.04294
1562.50000    0.06662
1563.00000    0.09201
1563.50000    0.11898
1564.00000    0.14741
1564.50000    0.17728
1565.00000    0.20859
1565.50000    0.24141
1566.00000    0.27588
1566.50000    0.31218
1567.00000    0.35056
1567.50000    0.39132
1568.00000    0.43481
1568.50000    0.48141
1569.00000    0.53155
1569.50000    0.58568
1570.00000    0.64429
1570.50000    0.70786
1571.00000    0.77691
1571.50000    0.85196
1572.00000    0.93350
1572.50000    1.02205
1573.00000    1.11808
1573.50000    1.22205
1574.00000    1.33439
1574.50000    1.45545
1575.00000    1.58555
1575.50000    1.72493
1576.00000    1.87374
1576.50000    2.03204
1577.00000    2.19977
1577.50000    2.37677
1578.00000    2.56271
1578.50000    2.75717
1579.00000    2.95956
1579.50000    3.16915
1580.00000    3.38504
1580.50000    3.60622
1581.00000    3.83153
1581.50000    4.05966
1582.00000    4.28918
1582.50000    4.51858
1583.00000    4.74621
1583.50000    4.97040
1584.00000    5.18938
1584.50000    5.40138
1585.00000    5.60459
1585.50000    5.79726
1586.00000    5.97764
1586.50000    6.14409
1587.00000    6.29503
1587.50000    6.42903
1588.00000    6.54480
1588.50000    6.64122
1589.00000    6.71736
1589.50000    6.77252
1590.00000    6.80621
1590.50000    6.81818
1591.00000    6.80843
1591.50000    6.77720
1592.00000    6.72500
1592.50000    6.65255
1593.00000    6.56083
1593.50000    6.45102
1594.00000    6.32448
1594.50000    6.18278
1595.00000    6.02760
1595.50000    5.86072
1596.00000    5.68403
1596.50000    5.49944
1597.00000    5.30885
1597.50000    5.11416
1598.00000    4.91717
1598.50000    4.71960
1599.00000    4.52305
1599.50000    4.32895
1600.00000    4.13856
1600.50000    3.95296
1601.00000    3.77303
1601.50000    3.59946
1602.00000    3.43276
1602.50000    3.27324
1603.00000    3.12107
1603.50000    2.97626
1604.00000    2.83870
1604.50000    2.70816
1605.00000    2.58438
1605.50000    2.46699
1606.00000    2.35565
1606.50000    2.24996
1607.00000    2.14959
1607.50000    2.05419
1608.00000    1.96348
1608.50000    1.87722
1609.00000    1.79526
1609.50000    1.71747
1610.00000    1.64380
1610.50000    1.57425
1611.00000    1.50886
1611.50000    1.44771
1612.00000    1.39088
1612.50000    1.33850
1613.00000    1.29067
1613.50000    1.24747
1614.00000    1.20896
1614.50000    1.17517
1615.00000    1.14610
1615.50000    1.12167
1616.00000    1.10178
1616.50000    1.08626
1617.00000    1.07490
1617.50000    1.06745
1618.00000    1.06361
1618.50000    1.06304
1619.00000    1.06537
1619.50000    1.07022
1620.00000    1.07719
1620.50000    1.08583
1621.00000    1.09574
1621.50000    1.10648
1622.00000    1.11762
1622.50000    1.12874
1623.00000    1.13940
1623.50000    1.14921
1624.00000    1.15776
1624.50000    1.16464
1625.00000    1.16949
1625.50000    1.17191
1626.00000    1.17156
1626.50000    1.16811
1627.00000    1.16124
1627.50000    1.15068
1628.00000    1.13619
1628.50000    1.11757
1629.00000    1.09468
1629.50000    1.06744
1630.00000    1.03584
1630.50000    0.99993
1631.00000    0.95985
1631.50000    0.91581
1632.00000    0.86812
1632.50000    0.81713
1633.00000    0.76329
1633.50000    0.70711
1634.00000    0.64914
1634.50000    0.58998
1635.00000    0.53024
1635.50000    0.47057
1636.00000    0.41158
1636.50000    0.35388
1637.00000    0.29802
1637.50000    0.24452
1638.00000    0.19381
1638.50000    0.14627
1639.00000    0.10218
1639.50000    0.06176
1640.00000    0.02514
1640.50000   -0.00765
1641.00000   -0.03661
1641.50000   -0.06183
1642.00000   -0.08346
1642.50000   -0.10166
1643.00000   -0.11666
1643.50000   -0.12867
1644.00000   -0.13793
1644.50000   -0.14468
1645.00000   -0.14912
1645.50000   -0.15147
1646.00000   -0.15188
1646.50000   -0.15053
1647.00000   -0.14752
1647.50000   -0.14297
1648.00000   -0.13696
1648.50000   -0.12957
1649.00000   -0.12088
1649.50000   -0.11096
1650.00000   -0.09990
1650.50000   -0.08782
1651.00000   -0.07485
1651.50000   -0.06115
1652.00000   -0.04692
1652.50000   -0.03238
1653.00000   -0.01778
1653.50000   -0.00340
1654.00000    0.01047
1654.50000    0.02352
1655.00000    0.03546
1655.50000    0.04600
1656.00000    0.05488
1656.50000    0.06187
1657.00000    0.06680
1657.50000    0.06954
1658.00000    0.07005
1658.50000    0.06834
1659.00000    0.06451
1659.50000    0.05874
1660.00000    0.05127
1660.50000    0.04242
1661.00000    0.03257
1661.50000    0.02214
1662.00000    0.01159
1662.50000    0.00139
1663.00000   -0.00800
1663.50000   -0.01612
1664.00000   -0.02256
1664.50000   -0.02695
1665.00000   -0.02900
1665.50000   -0.02850
1666.00000   -0.02531
1666.50000   -0.01940
1667.00000   -0.01083
1667.50000    0.00024
1668.00000    0.01357
1668.50000    0.02884
1669.00000    0.04565
1669.50000    0.06355
1670.00000    0.08207
1670.50000    0.10068
1671.00000    0.11890
1671.50000    0.13624
1672.00000    0.15224
1672.50000    0.16651
1673.00000    0.17871
1673.50000    0.18860
1674.00000    0.19598
1674.50000    0.20077
1675.00000    0.20295
1675.50000    0.20260
1676.00000    0.19986
1676.50000    0.19492
1677.00000    0.18804
1677.50000    0.17951
1678.00000    0.16963
1678.50000    0.15872
1679.00000    0.14708
1679.50000    0.13501
1680.00000    0.12277
1680.50000    0.11056
1681.00000    0.09857
1681.50000    0.08692
1682.00000    0.07569
1682.50000    0.06490
1683.00000    0.05452
1683.50000    0.04452
1684.00000    0.03481
1684.50000    0.02528
1685.00000    0.01583
1685.50000    0.00634
1686.00000   -0.00329
1686.50000   -0.01314
1687.00000   -0.02327
1687.50000   -0.03372
1688.00000   -0.04449
1688.50000   -0.05556
1689.00000   -0.06689
1689.50000   -0.07839
1690.00000   -0.08999
1690.50000   -0.10159
1691.00000   -0.11307
1691.50000   -0.12435
1692.00000   -0.13531
1692.50000   -0.14589
1693.00000   -0.15601
1693.50000   -0.16564
1694.00000   -0.17473
1694.50000   -0.18330
1695.00000   -0.19135
1695.50000   -0.19890
1696.00000   -0.20600
1696.50000   -0.21267
1697.00000   -0.21896
1697.50000   -0.22490
1698.00000   -0.23050
1698.50000   -0.23576
1699.00000   -0.24066
1699.50000   -0.24517
1700.00000   -0.24922
1700.50000   -0.25275
1701.00000   -0.25565
1701.50000   -0.25784
1702.00000   -0.25921
1702.50000   -0.25965
1703.00000   -0.25908
1703.50000   -0.25740
1704.00000   -0.25456
1704.50000   -0.25049
1705.00000   -0.24519
1705.50000   -0.23863
1706.00000   -0.23084
1706.50000   -0.22186
1707.00000   -0.21173
1707.50000   -0.20054
1708.00000   -0.18834
1708.50000   -0.17524
1709.00000   -0.16130
1709.50000   -0.14660
1710.00000   -0.13122
1710.50000   -0.11522
1711.00000   -0.09864
1711.50000   -0.08153
1712.00000   -0.06394
1712.50000   -0.04588
1713.00000   -0.02740
1713.50000   -0.00853
1714.00000    0.01069
1714.50000    0.03018
1715.00000    0.04988
1715.50000    0.06968
1716.00000    0.08945
1716.50000    0.10904
1717.00000    0.12826
1717.50000    0.14691
1718.00000    0.16476
1718.50000    0.18156
1719.00000    0.19704
1719.50000    0.21094
1720.00000    0.22297
1720.50000    0.23288
1721.00000    0.24041
1721.50000    0.24534
1722.00000    0.24748
1722.50000    0.24668
1723.00000    0.24283
1723.50000    0.23589
1724.00000    0.22587
1724.50000    0.21287
1725.00000    0.19702
1725.50000    0.17855
1726.00000    0.15775
1726.50000    0.13496
1727.00000    0.11061
1727.50000    0.08515
1728.00000    0.05910
1728.50000    0.03298
1729.00000    0.00737
1729.50000   -0.01719
1730.00000   -0.04013
1730.50000   -0.06093
1731.00000   -0.07910
1731.50000   -0.09421
1732.00000   -0.10591
1732.50000   -0.11390
1733.00000   -0.11802
1733.50000   -0.11816
1734.00000   -0.11436
1734.50000   -0.10673
1735.00000   -0.09551
1735.50000   -0.08103
1736.00000   -0.06372
1736.50000   -0.04406
1737.00000   -0.02262
1737.50000   -0.00001
1738.00000    0.02313
1738.50000    0.04617
1739.00000    0.06848
1739.50000    0.08946
1740.00000    0.10859
1740.50000    0.12539
1741.00000    0.13947
1741.50000    0.15055
1742.00000    0.15843
1742.50000    0.16302
1743.00000    0.16435
1743.50000    0.16254
1744.00000    0.15779
1744.50000    0.15041
1745.00000    0.14076
1745.50000    0.12927
1746.00000    0.11640
1746.50000    0.10265
1747.00000    0.08851
1747.50000    0.07447
1748.00000    0.06099
1748.50000    0.04851
1749.00000    0.03740
1749.50000    0.02797
1750.00000    0.02049
1750.50000    0.01512
1751.00000    0.01197
1751.50000    0.01109
1752.00000    0.01244
1752.50000    0.01592
1753.00000    0.02141
1753.50000    0.02869
1754.00000    0.03756
1754.50000    0.04775
1755.00000    0.05901
1755.50000    0.07107
1756.00000    0.08366
1756.50000    0.09653
1757.00000    0.10944
1757.50000    0.12218
1758.00000    0.13456
1758.50000    0.14641
1759.00000    0.15760
1759.50000    0.16801
1760.00000    0.17756
1760.50000    0.18615
1761.00000    0.19375
1761.50000    0.20028
1762.00000    0.20573
1762.50000    0.21004
1763.00000    0.21317
1763.50000    0.21509
1764.00000    0.21574
1764.50000    0.21507
1765.00000    0.21305
1765.50000    0.20960
1766.00000    0.20469
1766.50000    0.19826
1767.00000    0.19028
1767.50000    0.18074
1768.00000    0.16961
1768.50000    0.15692
1769.00000    0.14270
1769.50000    0.12700
1770.00000    0.10990
1770.50000    0.09150
1771.00000    0.07194
1771.50000    0.05133
1772.00000    0.02984
1772.50000    0.00764
1773.00000   -0.01510
1773.50000   -0.03821
1774.00000   -0.06150
1774.50000   -0.08481
1775.00000   -0.10796
1775.50000   -0.13079
1776.00000   -0.15315
1776.50000   -0.17489
1777.00000   -0.19587
1777.50000   -0.21596
1778.00000   -0.23502
1778.50000   -0.25294
1779.00000   -0.26958
1779.50000   -0.28480
1780.00000   -0.29847
1780.50000   -0.31044
1781.00000   -0.32056
1781.50000   -0.32869
1782.00000   -0.33468
1782.50000   -0.33838
1783.00000   -0.33967
1783.50000   -0.33844
1784.00000   -0.33461
1784.50000   -0.32813
1785.00000   -0.31900
1785.50000   -0.30729
1786.00000   -0.29308
1786.50000   -0.27656
1787.00000   -0.25796
1787.50000   -0.23756
1788.00000   -0.21571
1788.50000   -0.19282
1789.00000   -0.16934
1789.50000   -0.14574
1790.00000   -0.12251
1790.50000   -0.10015
1791.00000   -0.07915
1791.50000   -0.05994
1792.00000   -0.04293
1792.50000   -0.02845
1793.00000   -0.01677
1793.50000   -0.00806
1794.00000   -0.00239
1794.50000    0.00027
1795.00000    0.00002
1795.50000   -0.00290
1796.00000   -0.00820
1796.50000   -0.01550
1797.00000   -0.02438
1797.50000   -0.03437
1798.00000   -0.04498
1798.50000   -0.05573
1799.00000   -0.06615
1799.50000   -0.07581
1800.00000   -0.08434
1800.50000   -0.09143
1801.00000   -0.09683
1801.50000   -0.10040
1802.00000   -0.10204
1802.50000   -0.10177
1803.00000   -0.09965
1803.50000   -0.09582
1804.00000   -0.09047
1804.50000   -0.08382
1805.00000   -0.07613
1805.50000   -0.06767
1806.00000   -0.05870
1806.50000   -0.04947
1807.00000   -0.04023
1807.50000   -0.03115
1808.00000   -0.02242
1808.50000   -0.01414
1809.00000   -0.00640
1809.50000    0.00074
1810.00000    0.00729
1810.50000    0.01326
1811.00000    0.01868
1811.50000    0.02361
1812.00000    0.02811
1812.50000    0.03224
1813.00000    0.03606
1813.50000    0.03962
1814.00000    0.04297
1814.50000    0.04614
1815.00000    0.04916
1815.50000    0.05205
1816.00000    0.05483
1816.50000    0.05750
1817.00000    0.06008
1817.50000    0.06259
1818.00000    0.06506
1818.50000    0.06750
1819.00000    0.06996
1819.50000    0.07247
1820.00000    0.07507
1820.50000    0.07779
1821.00000    0.08068
1821.50000    0.08375
1822.00000    0.08701
1822.50000    0.09045
1823.00000    0.09404
1823.50000    0.09773
1824.00000    0.10144
1824.50000    0.10508
1825.00000    0.10854
1825.50000    0.11169
1826.00000    0.11440
1826.50000    0.11654
1827.00000    0.11801
1827.50000    0.11872
1828.00000    0.11859
1828.50000    0.11761
1829.00000    0.11580
1829.50000    0.11323
1830.00000    0.11004
1830.50000    0.10639
1831.00000    0.10252
1831.50000    0.09869
1832.00000    0.09522
1832.50000    0.09243
1833.00000    0.09066
1833.50000    0.09026
1834.00000    0.09155
1834.50000    0.09484
1835.00000    0.10036
1835.50000    0.10831
1836.00000    0.11881
1836.50000    0.13192
1837.00000    0.14759
1837.50000    0.16569
1838.00000    0.18602
1838.50000    0.20829
1839.00000    0.23212
1839.50000    0.25709
1840.00000    0.28270
1840.50000    0.30843
1841.00000    0.33374
1841.50000    0.35808
1842.00000    0.38091
1842.50000    0.40171
1843.00000    0.42003
1843.50000    0.43546
1844.00000    0.44765
1844.50000    0.45633
1845.00000    0.46131
1845.50000    0.46248
1846.00000    0.45980
1846.50000    0.45331
1847.00000    0.44312
1847.50000    0.42938
1848.00000    0.41231
1848.50000    0.39216
1849.00000    0.36921
1849.50000    0.34375
1850.00000    0.31610
1850.50000    0.28657
1851.00000    0.25545
1851.50000    0.22305
1852.00000    0.18964
1852.50000    0.15549
1853.00000    0.12085
1853.50000    0.08598
1854.00000    0.05111
1854.50000    0.01649
1855.00000   -0.01766
1855.50000   -0.05107
1856.00000   -0.08351
1856.50000   -0.11469
1857.00000   -0.14435
1857.50000   -0.17220
1858.00000   -0.19794
1858.50000   -0.22128
1859.00000   -0.24193
1859.50000   -0.25962
1860.00000   -0.27411
1860.50000   -0.28518
1861.00000   -0.29265
1861.50000   -0.29641
1862.00000   -0.29639
1862.50000   -0.29258
1863.00000   -0.28504
1863.50000   -0.27389
1864.00000   -0.25931
1864.50000   -0.24156
1865.00000   -0.22091
1865.50000   -0.19770
1866.00000   -0.17229
1866.50000   -0.14509
1867.00000   -0.11649
1867.50000   -0.08691
1868.00000   -0.05677
1868.50000   -0.02647
1869.00000    0.00361
1869.50000    0.03308
1870.00000    0.06159
1870.50000    0.08881
1871.00000    0.11441
1871.50000    0.13809
1872.00000    0.15958
1872.50000    0.17858
1873.00000    0.19486
1873.50000    0.20817
1874.00000    0.21830
1874.50000    0.22504
1875.00000    0.22824
1875.50000    0.22776
1876.00000    0.22354
1876.50000    0.21554
1877.00000    0.20381
1877.50000    0.18846
1878.00000    0.16969
1878.50000    0.14776
1879.00000    0.12301
1879.50000    0.09588
1880.00000    0.06684
1880.50000    0.03644
1881.00000    0.00525
1881.50000   -0.02612
1882.00000   -0.05707
1882.50000   -0.08699
1883.00000   -0.11534
1883.50000   -0.14160
1884.00000   -0.16534
1884.50000   -0.18620
1885.00000   -0.20391
1885.50000   -0.21830
1886.00000   -0.22930
1886.50000   -0.23692
1887.00000   -0.24128
1887.50000   -0.24256
1888.00000   -0.24099
1888.50000   -0.23689
1889.00000   -0.23058
1889.50000   -0.22240
1890.00000   -0.21272
1890.50000   -0.20186
1891.00000   -0.19015
1891.50000   -0.17788
1892.00000   -0.16531
1892.50000   -0.15266
1893.00000   -0.14012
1893.50000   -0.12783
1894.00000   -0.11592
1894.50000   -0.10450
1895.00000   -0.09363
1895.50000   -0.08338
1896.00000   -0.07380
1896.50000   -0.06493
1897.00000   -0.05680
1897.50000   -0.04941
1898.00000   -0.04277
1898.50000   -0.03688
1899.00000   -0.03170
1899.50000   -0.02718
1900.00000   -0.02325
1900.50000   -0.01983
1901.00000   -0.01678
1901.50000   -0.01399
1902.00000   -0.01130
1902.50000   -0.00854
1903.00000   -0.00556
1903.50000   -0.00219
1904.00000    0.00171
1904.50000    0.00627
1905.00000    0.01160
1905.50000    0.01775
1906.00000    0.02474
1906.50000    0.03256
1907.00000    0.04114
1907.50000    0.05035
1908.00000    0.06006
1908.50000    0.07006
1909.00000    0.08013
1909.50000    0.09002
1910.00000    0.09949
1910.50000    0.10825
1911.00000    0.11605
1911.50000    0.12265
1912.00000    0.12781
1912.50000    0.13134
1913.00000    0.13306
1913.50000    0.13285
1914.00000    0.13062
1914.50000    0.12631
1915.00000    0.11994
1915.50000    0.11155
1916.00000    0.10124
1916.50000    0.08915
1917.00000    0.07547
1917.50000    0.06045
1918.00000    0.04437
1918.50000    0.02755
1919.00000    0.01036
1919.50000   -0.00682
1920.00000   -0.02358
1920.50000   -0.03950
1921.00000   -0.05416
1921.50000   -0.06715
1922.00000   -0.07811
1922.50000   -0.08668
1923.00000   -0.09259
1923.50000   -0.09562
1924.00000   -0.09563
1924.50000   -0.09258
1925.00000   -0.08649
1925.50000   -0.07750
1926.00000   -0.06583
1926.50000   -0.05177
1927.00000   -0.03570
1927.50000   -0.01804
1928.00000    0.00073
1928.50000    0.02012
1929.00000    0.03965
1929.50000    0.05884
1930.00000    0.07726
1930.50000    0.09451
1931.00000    0.11030
1931.50000    0.12436
1932.00000    0.13653
1932.50000    0.14672
1933.00000    0.15490
1933.50000    0.16112
1934.00000    0.16548
1934.50000    0.16811
1935.00000    0.16917
1935.50000    0.16884
1936.00000    0.16731
1936.50000    0.16473
1937.00000    0.16125
1937.50000    0.15702
1938.00000    0.15214
1938.50000    0.14668
1939.00000    0.14073
1939.50000    0.13433
1940.00000    0.12755
1940.50000    0.12044
1941.00000    0.11307
1941.50000    0.10553
1942.00000    0.09794
1942.50000    0.09043
1943.00000    0.08316
1943.50000    0.07632
1944.00000    0.07010
1944.50000    0.06469
1945.00000    0.06028
1945.50000    0.05703
1946.00000    0.05508
1946.50000    0.05452
1947.00000    0.05537
1947.50000    0.05763
1948.00000    0.06119
1948.50000    0.06591
1949.00000    0.07158
1949.50000    0.07794
1950.00000    0.08470
1950.50000    0.09153
1951.00000    0.09809
1951.50000    0.10404
1952.00000    0.10906
1952.50000    0.11285
1953.00000    0.11516
1953.50000    0.11577
1954.00000    0.11453
1954.50000    0.11133
1955.00000    0.10613
1955.50000    0.09893
1956.00000    0.08978
1956.50000    0.07879
1957.00000    0.06609
1957.50000    0.05185
1958.00000    0.03627
1958.50000    0.01954
1959.00000    0.00189
1959.50000   -0.01646
1960.00000   -0.03528
1960.50000   -0.05433
1961.00000   -0.07339
1961.50000   -0.09225
1962.00000   -0.11069
1962.50000   -0.12850
1963.00000   -0.14551
1963.50000   -0.16154
1964.00000   -0.17645
1964.50000   -0.19011
1965.00000   -0.20244
1965.50000   -0.21339
1966.00000   -0.22295
1966.50000   -0.23114
1967.00000   -0.23806
1967.50000   -0.24380
1968.00000   -0.24854
1968.50000   -0.25244
1969.00000   -0.25572
1969.50000   -0.25858
1970.00000   -0.26123
1970.50000   -0.26384
1971.00000   -0.26657
1971.50000   -0.26951
1972.00000   -0.27271
1972.50000   -0.27613
1973.00000   -0.27967
1973.50000   -0.28316
1974.00000   -0.28637
1974.50000   -0.28899
1975.00000   -0.29069
1975.50000   -0.29110
1976.00000   -0.28985
1976.50000   -0.28657
1977.00000   -0.28095
1977.50000   -0.27271
1978.00000   -0.26166
1978.50000   -0.24771
1979.00000   -0.23086
1979.50000   -0.21122
1980.00000   -0.18901
1980.50000   -0.16455
1981.00000   -0.13824
1981.50000   -0.11058
1982.00000   -0.08208
1982.50000   -0.05331
1983.00000   -0.02483
1983.50000    0.00283
1984.00000    0.02919
1984.50000    0.05384
1985.00000    0.07646
1985.50000    0.09685
1986.00000    0.11490
1986.50000    0.13063
1987.00000    0.14416
1987.50000    0.15571
1988.00000    0.16557
1988.50000    0.17408
1989.00000    0.18163
1989.50000    0.18859
1990.00000    0.19532
1990.50000    0.20213
1991.00000    0.20927
1991.50000    0.21689
1992.00000    0.22506
1992.50000    0.23375
1993.00000    0.24281
1993.50000    0.25204
1994.00000    0.26114
1994.50000    0.26974
1995.00000    0.27746
1995.50000    0.28390
1996.00000    0.28868
1996.50000    0.29143
1997.00000    0.29187
1997.50000    0.28979
1998.00000    0.28508
1998.50000    0.27773
1999.00000    0.26783
1999.50000    0.25559
2000.00000    0.24132
2000.50000    0.22541
2001.00000    0.20831
2001.50000    0.19052
2002.00000    0.17258
2002.50000    0.15501
2003.00000    0.13831
2003.50000    0.12292
2004.00000    0.10922
2004.50000    0.09749
2005.00000    0.08793
2005.50000    0.08060
2006.00000    0.07547
2006.50000    0.07239
2007.00000    0.07112
2007.50000    0.07131
2008.00000    0.07255
2008.50000    0.07437
2009.00000    0.07627
2009.50000    0.07773
2010.00000    0.07824
2010.50000    0.07733
2011.00000    0.07456
2011.50000    0.06957
2012.00000    0.06207
2012.50000    0.05186
2013.00000    0.03884
2013.50000    0.02301
2014.00000    0.00446
2014.50000   -0.01661
2015.00000   -0.03991
2015.50000   -0.06508
2016.00000   -0.09166
2016.50000   -0.11914
2017.00000   -0.14696
2017.50000   -0.17452
2018.00000   -0.20121
2018.50000   -0.22639
2019.00000   -0.24946
2019.50000   -0.26984
2020.00000   -0.28700
2020.50000   -0.30048
2021.00000   -0.30989
2021.50000   -0.31494
2022.00000   -0.31545
2022.50000   -0.31137
2023.00000   -0.30275
2023.50000   -0.28980
2024.00000   -0.27283
2024.50000   -0.25229
2025.00000   -0.22876
2025.50000   -0.20288
2026.00000   -0.17540
2026.50000   -0.14712
2027.00000   -0.11889
2027.50000   -0.09154
2028.00000   -0.06590
2028.50000   -0.04273
2029.00000   -0.02272
2029.50000   -0.00645
2030.00000    0.00562
2030.50000    0.01320
2031.00000    0.01613
2031.50000    0.01444
2032.00000    0.00831
2032.50000   -0.00192
2033.00000   -0.01577
2033.50000   -0.03264
2034.00000   -0.05182
2034.50000   -0.07255
2035.00000   -0.09402
2035.50000   -0.11540
2036.00000   -0.13591
2036.50000   -0.15481
2037.00000   -0.17142
2037.50000   -0.18520
2038.00000   -0.19567
2038.50000   -0.20249
2039.00000   -0.20546
2039.50000   -0.20448
2040.00000   -0.19958
2040.50000   -0.19087
2041.00000   -0.17858
2041.50000   -0.16299
2042.00000   -0.14445
2042.50000   -0.12335
2043.00000   -0.10009
2043.50000   -0.07508
2044.00000   -0.04876
2044.50000   -0.02151
2045.00000    0.00626
2045.50000    0.03419
2046.00000    0.06192
2046.50000    0.08910
2047.00000    0.11543
2047.50000    0.14058
2048.00000    0.16426
2048.50000    0.18617
2049.00000    0.20602
2049.50000    0.22353
2050.00000    0.23844
2050.50000    0.25051
2051.00000    0.25953
2051.50000    0.26531
2052.00000    0.26774
2052.50000    0.26675
2053.00000    0.26232
2053.50000    0.25455
2054.00000    0.24356
2054.50000    0.22960
2055.00000    0.21296
2055.50000    0.19404
2056.00000    0.17326
2056.50000    0.15112
2057.00000    0.12815
2057.50000    0.10490
2058.00000    0.08190
2058.50000    0.05970
2059.00000    0.03878
2059.50000    0.01960
2060.00000    0.00251
2060.50000   -0.01217
2061.00000   -0.02422
2061.50000   -0.03352
2062.00000   -0.04002
2062.50000   -0.04376
2063.00000   -0.04487
2063.50000   -0.04352
2064.00000   -0.03997
2064.50000   -0.03452
2065.00000   -0.02749
2065.50000   -0.01925
2066.00000   -0.01014
2066.50000   -0.00051
2067.00000    0.00929
2067.50000    0.01896
2068.00000    0.02824
2068.50000    0.03689
2069.00000    0.04475
2069.50000    0.05168
2070.00000    0.05762
2070.50000    0.06254
2071.00000    0.06647
2071.50000    0.06947
2072.00000    0.07165
2072.50000    0.07313
2073.00000    0.07405
2073.50000    0.07456
2074.00000    0.07481
2074.50000    0.07491
2075.00000    0.07496
2075.50000    0.07503
2076.00000    0.07514
2076.50000    0.07527
2077.00000    0.07535
2077.50000    0.07525
2078.00000    0.07483
2078.50000    0.07389
2079.00000    0.07222
2079.50000    0.06958
2080.00000    0.06576
2080.50000    0.06054
2081.00000    0.05375
2081.50000    0.04527
2082.00000    0.03502
2082.50000    0.02300
2083.00000    0.00930
2083.50000   -0.00593
2084.00000   -0.02245
2084.50000   -0.03996
2085.00000   -0.05806
2085.50000   -0.07633
2086.00000   -0.09431
2086.50000   -0.11150
2087.00000   -0.12742
2087.50000   -0.14159
2088.00000   -0.15357
2088.50000   -0.16298
2089.00000   -0.16949
2089.50000   -0.17285
2090.00000   -0.17289
2090.50000   -0.16954
2091.00000   -0.16278
2091.50000   -0.15272
2092.00000   -0.13950
2092.50000   -0.12336
2093.00000   -0.10459
2093.50000   -0.08352
2094.00000   -0.06052
2094.50000   -0.03597
2095.00000   -0.01029
2095.50000    0.01612
2096.00000    0.04285
2096.50000    0.06953
2097.00000    0.09577
2097.50000    0.12124
2098.00000    0.14560
2098.50000    0.16856
2099.00000    0.18986
2099.50000    0.20923
2100.00000    0.22647
2100.50000    0.24137
2101.00000    0.25378
2101.50000    0.26353
2102.00000    0.27051
2102.50000    0.27462
2103.00000    0.27578
2103.50000    0.27395
2104.00000    0.26911
2104.50000    0.26126
2105.00000    0.25043
2105.50000    0.23668
2106.00000    0.22011
2106.50000    0.20084
2107.00000    0.17901
2107.50000    0.15479
2108.00000    0.12837
2108.50000    0.09998
2109.00000    0.06983
2109.50000    0.03820
2110.00000    0.00532
2110.50000   -0.02851
2111.00000   -0.06303
2111.50000   -0.09793
2112.00000   -0.13294
2112.50000   -0.16774
2113.00000   -0.20202
2113.50000   -0.23548
2114.00000   -0.26779
2114.50000   -0.29860
2115.00000   -0.32759
2115.50000   -0.35438
2116.00000   -0.37860
2116.50000   -0.39988
2117.00000   -0.41783
2117.50000   -0.43206
2118.00000   -0.44218
2118.50000   -0.44782
2119.00000   -0.44864
2119.50000   -0.44432
2120.00000   -0.43461
2120.50000   -0.41930
2121.00000   -0.39827
2121.50000   -0.37148
2122.00000   -0.33898
2122.50000   -0.30092
2123.00000   -0.25759
2123.50000   -0.20934
2124.00000   -0.15667
2124.50000   -0.10015
2125.00000   -0.04044
2125.50000    0.02171
2126.00000    0.08550
2126.50000    0.15011
2127.00000    0.21468
2127.50000    0.27838
2128.00000    0.34040
2128.50000    0.39997
2129.00000    0.45641
2129.50000    0.50911
2130.00000    0.55756
2130.50000    0.60134
2131.00000    0.64015
2131.50000    0.67381
2132.00000    0.70221
2132.50000    0.72537
2133.00000    0.74336
2133.50000    0.75635
2134.00000    0.76457
2134.50000    0.76828
2135.00000    0.76778
2135.50000    0.76341
2136.00000    0.75551
2136.50000    0.74442
2137.00000    0.73050
2137.50000    0.71408
2138.00000    0.69549
2138.50000    0.67507
2139.00000    0.65311
2139.50000    0.62995
2140.00000    0.60586
2140.50000    0.58116
2141.00000    0.55614
2141.50000    0.53109
2142.00000    0.50628
2142.50000    0.48201
2143.00000    0.45855
2143.50000    0.43613
2144.00000    0.41501
2144.50000    0.39540
2145.00000    0.37747
2145.50000    0.36137
2146.00000    0.34722
2146.50000    0.33506
2147.00000    0.32491
2147.50000    0.31674
2148.00000    0.31044
2148.50000    0.30588
2149.00000    0.30285
2149.50000    0.30113
2150.00000    0.30041
2150.50000    0.30039
2151.00000    0.30072
2151.50000    0.30104
2152.00000    0.30098
2152.50000    0.30018
2153.00000    0.29828
2153.50000    0.29497
2154.00000    0.28995
2154.50000    0.28299
2155.00000    0.27390
2155.50000    0.26256
2156.00000    0.24892
2156.50000    0.23299
2157.00000    0.21487
2157.50000    0.19473
2158.00000    0.17280
2158.50000    0.14937
2159.00000    0.12480
2159.50000    0.09949
2160.00000    0.07386
2160.50000    0.04837
2161.00000    0.02348
2161.50000   -0.00036
2162.00000   -0.02272
2162.50000   -0.04320
2163.00000   -0.06146
2163.50000   -0.07719
2164.00000   -0.09019
2164.50000   -0.10029
2165.00000   -0.10743
2165.50000   -0.11163
2166.00000   -0.11298
2166.50000   -0.11168
2167.00000   -0.10797
2167.50000   -0.10218
2168.00000   -0.09469
2168.50000   -0.08595
2169.00000   -0.07641
2169.50000   -0.06655
2170.00000   -0.05686
2170.50000   -0.04780
2171.00000   -0.03979
2171.50000   -0.03324
2172.00000   -0.02844
2172.50000   -0.02566
2173.00000   -0.02505
2173.50000   -0.02668
2174.00000   -0.03055
2174.50000   -0.03653
2175.00000   -0.04445
2175.50000   -0.05405
2176.00000   -0.06499
2176.50000   -0.07692
2177.00000   -0.08945
2177.50000   -0.10216
2178.00000   -0.11468
2178.50000   -0.12664
2179.00000   -0.13770
2179.50000   -0.14761
2180.00000   -0.15616
2180.50000   -0.16320
2181.00000   -0.16866
2181.50000   -0.17252
2182.00000   -0.17483
2182.50000   -0.17566
2183.00000   -0.17514
2183.50000   -0.17340
2184.00000   -0.17058
2184.50000   -0.16680
2185.00000   -0.16217
2185.50000   -0.15679
2186.00000   -0.15069
2186.50000   -0.14391
2187.00000   -0.13643
2187.50000   -0.12820
2188.00000   -0.11918
2188.50000   -0.10928
2189.00000   -0.09846
2189.50000   -0.08666
2190.00000   -0.07386
2190.50000   -0.06005
2191.00000   -0.04530
2191.50000   -0.02969
2192.00000   -0.01336
2192.50000    0.00350
2193.00000    0.02065
2193.50000    0.03785
2194.00000    0.05480
2194.50000    0.07120
2195.00000    0.08676
2195.50000    0.10117
2196.00000    0.11418
2196.50000    0.12554
2197.00000    0.13506
2197.50000    0.14259
2198.00000    0.14804
2198.50000    0.15136
2199.00000    0.15256
2199.50000    0.15171
2200.00000    0.14892
2200.50000    0.14434
2201.00000    0.13816
2201.50000    0.13057
2202.00000    0.12182
2202.50000    0.11213
2203.00000    0.10175
2203.50000    0.09090
2204.00000    0.07980
2204.50000    0.06865
2205.00000    0.05763
2205.50000    0.04689
2206.00000    0.03657
2206.50000    0.02676
2207.00000    0.01754
2207.50000    0.00897
2208.00000    0.00108
2208.50000   -0.00611
2209.00000   -0.01260
2209.50000   -0.01838
2210.00000   -0.02346
2210.50000   -0.02785
2211.00000   -0.03155
2211.50000   -0.03455
2212.00000   -0.03687
2212.50000   -0.03848
2213.00000   -0.03937
2213.50000   -0.03953
2214.00000   -0.03897
2214.50000   -0.03768
2215.00000   -0.03568
2215.50000   -0.03302
2216.00000   -0.02977
2216.50000   -0.02603
2217.00000   -0.02191
2217.50000   -0.01758
2218.00000   -0.01323
2218.50000   -0.00905
2219.00000   -0.00528
2219.50000   -0.00215
2220.00000    0.00012
2220.50000    0.00132
2221.00000    0.00128
2221.50000   -0.00014
2222.00000   -0.00301
2222.50000   -0.00736
2223.00000   -0.01311
2223.50000   -0.02015
2224.00000   -0.02827
2224.50000   -0.03721
2225.00000   -0.04663
2225.50000   -0.05617
2226.00000   -0.06541
2226.50000   -0.07396
2227.00000   -0.08139
2227.50000   -0.08734
2228.00000   -0.09146
2228.50000   -0.09348
2229.00000   -0.09320
2229.50000   -0.09051
2230.00000   -0.08537
2230.50000   -0.07784
2231.00000   -0.06808
2231.50000   -0.05629
2232.00000   -0.04275
2232.50000   -0.02778
2233.00000   -0.01172
2233.50000    0.00508
2234.00000    0.02228
2234.50000    0.03960
2235.00000    0.05680
2235.50000    0.07371
2236.00000    0.09022
2236.50000    0.10631
2237.00000    0.12205
2237.50000    0.13757
2238.00000    0.15307
2238.50000    0.16878
2239.00000    0.18497
2239.50000    0.20192
2240.00000    0.21989
2240.50000    0.23910
2241.00000    0.25972
2241.50000    0.28183
2242.00000    0.30544
2242.50000    0.33043
2243.00000    0.35658
2243.50000    0.38357
2244.00000    0.41095
2244.50000    0.43822
2245.00000    0.46475
2245.50000    0.48989
2246.00000    0.51293
2246.50000    0.53315
2247.00000    0.54986
2247.50000    0.56239
2248.00000    0.57016
2248.50000    0.57266
2249.00000    0.56950
2249.50000    0.56043
2250.00000    0.54532
2250.50000    0.52420
2251.00000    0.49723
2251.50000    0.46473
2252.00000    0.42716
2252.50000    0.38510
2253.00000    0.33923
2253.50000    0.29033
2254.00000    0.23924
2254.50000    0.18687
2255.00000    0.13411
2255.50000    0.08190
2256.00000    0.03112
2256.50000   -0.01737
2257.00000   -0.06278
2257.50000   -0.10439
2258.00000   -0.14155
2258.50000   -0.17374
2259.00000   -0.20050
2259.50000   -0.22152
2260.00000   -0.23655
2260.50000   -0.24549
2261.00000   -0.24833
2261.50000   -0.24516
2262.00000   -0.23617
2262.50000   -0.22165
2263.00000   -0.20197
2263.50000   -0.17759
2264.00000   -0.14902
2264.50000   -0.11688
2265.00000   -0.08180
2265.50000   -0.04449
2266.00000   -0.00570
2266.50000    0.03381
2267.00000    0.07324
2267.50000    0.11182
2268.00000    0.14875
2268.50000    0.18327
2269.00000    0.21467
2269.50000    0.24227
2270.00000    0.26548
2270.50000    0.28379
2271.00000    0.29678
2271.50000    0.30416
2272.00000    0.30576
2272.50000    0.30152
2273.00000    0.29153
2273.50000    0.27602
2274.00000    0.25535
2274.50000    0.23001
2275.00000    0.20059
2275.50000    0.16779
2276.00000    0.13239
2276.50000    0.09521
2277.00000    0.05713
2277.50000    0.01900
2278.00000   -0.01834
2278.50000   -0.05410
2279.00000   -0.08757
2279.50000   -0.11814
2280.00000   -0.14533
2280.50000   -0.16878
2281.00000   -0.18826
2281.50000   -0.20373
2282.00000   -0.21524
2282.50000   -0.22301
2283.00000   -0.22738
2283.50000   -0.22876
2284.00000   -0.22766
2284.50000   -0.22466
2285.00000   -0.22034
2285.50000   -0.21529
2286.00000   -0.21007
2286.50000   -0.20521
2287.00000   -0.20113
2287.50000   -0.19821
2288.00000   -0.19670
2288.50000   -0.19675
2289.00000   -0.19841
2289.50000   -0.20163
2290.00000   -0.20625
2290.50000   -0.21204
2291.00000   -0.21870
2291.50000   -0.22588
2292.00000   -0.23319
2292.50000   -0.24022
2293.00000   -0.24657
2293.50000   -0.25187
2294.00000   -0.25576
2294.50000   -0.25793
2295.00000   -0.25813
2295.50000   -0.25614
2296.00000   -0.25183
2296.50000   -0.24511
2297.00000   -0.23596
2297.50000   -0.22441
2298.00000   -0.21053
2298.50000   -0.19446
2299.00000   -0.17636
2299.50000   -0.15645
2300.00000   -0.13496
2300.50000   -0.11215
2301.00000   -0.08833
2301.50000   -0.06379
2302.00000   -0.03886
2302.50000   -0.01389
2303.00000    0.01080
2303.50000    0.03487
2304.00000    0.05798
2304.50000    0.07981
2305.00000    0.10008
2305.50000    0.11852
2306.00000    0.13492
2306.50000    0.14910
2307.00000    0.16095
2307.50000    0.17042
2308.00000    0.17752
2308.50000    0.18235
2309.00000    0.18505
2309.50000    0.18585
2310.00000    0.18504
2310.50000    0.18295
2311.00000    0.17996
2311.50000    0.17647
2312.00000    0.17289
2312.50000    0.16964
2313.00000    0.16709
2313.50000    0.16560
2314.00000    0.16546
2314.50000    0.16689
2315.00000    0.17004
2315.50000    0.17496
2316.00000    0.18160
2316.50000    0.18985
2317.00000    0.19947
2317.50000    0.21015
2318.00000    0.22152
2318.50000    0.23313
2319.00000    0.24447
2319.50000    0.25504
2320.00000    0.26431
2320.50000    0.27175
2321.00000    0.27688
2321.50000    0.27926
2322.00000    0.27852
2322.50000    0.27436
2323.00000    0.26661
2323.50000    0.25516
2324.00000    0.24004
2324.50000    0.22138
2325.00000    0.19943
2325.50000    0.17452
2326.00000    0.14712
2326.50000    0.11774
2327.00000    0.08700
2327.50000    0.05554
2328.00000    0.02406
2328.50000   -0.00673
2329.00000   -0.03613
2329.50000   -0.06345
2330.00000   -0.08807
2330.50000   -0.10939
2331.00000   -0.12693
2331.50000   -0.14026
2332.00000   -0.14908
2332.50000   -0.15320
2333.00000   -0.15253
2333.50000   -0.14713
2334.00000   -0.13716
2334.50000   -0.12291
2335.00000   -0.10479
2335.50000   -0.08331
2336.00000   -0.05906
2336.50000   -0.03274
2337.00000   -0.00509
2337.50000    0.02309
2338.00000    0.05099
2338.50000    0.07780
2339.00000    0.10273
2339.50000    0.12503
2340.00000    0.14404
2340.50000    0.15917
2341.00000    0.16994
2341.50000    0.17603
2342.00000    0.17721
2342.50000    0.17343
2343.00000    0.16478
2343.50000    0.15149
2344.00000    0.13393
2344.50000    0.11260
2345.00000    0.08810
2345.50000    0.06110
2346.00000    0.03235
2346.50000    0.00263
2347.00000   -0.02728
2347.50000   -0.05662
2348.00000   -0.08469
2348.50000   -0.11083
2349.00000   -0.13450
2349.50000   -0.15524
2350.00000   -0.17271
2350.50000   -0.18667
2351.00000   -0.19702
2351.50000   -0.20375
2352.00000   -0.20694
2352.50000   -0.20678
2353.00000   -0.20351
2353.50000   -0.19744
2354.00000   -0.18892
2354.50000   -0.17832
2355.00000   -0.16600
2355.50000   -0.15236
2356.00000   -0.13775
2356.50000   -0.12252
2357.00000   -0.10696
2357.50000   -0.09138
2358.00000   -0.07600
2358.50000   -0.06104
2359.00000   -0.04668
2359.50000   -0.03307
2360.00000   -0.02032
2360.50000   -0.00853
2361.00000    0.00224
2361.50000    0.01193
2362.00000    0.02052
2362.50000    0.02798
2363.00000    0.03430
2363.50000    0.03946
2364.00000    0.04345
2364.50000    0.04627
2365.00000    0.04790
2365.50000    0.04830
2366.00000    0.04743
2366.50000    0.04526
2367.00000    0.04173
2367.50000    0.03678
2368.00000    0.03037
2368.50000    0.02245
2369.00000    0.01300
2369.50000    0.00203
2370.00000   -0.01041
2370.50000   -0.02422
2371.00000   -0.03926
2371.50000   -0.05531
2372.00000   -0.07209
2372.50000   -0.08928
2373.00000   -0.10648
2373.50000   -0.12326
2374.00000   -0.13917
2374.50000   -0.15374
2375.00000   -0.16652
2375.50000   -0.17707
2376.00000   -0.18503
2376.50000   -0.19011
2377.00000   -0.19210
2377.50000   -0.19091
2378.00000   -0.18656
2378.50000   -0.17919
2379.00000   -0.16905
2379.50000   -0.15648
2380.00000   -0.14192
2380.50000   -0.12586
2381.00000   -0.10883
2381.50000   -0.09139
2382.00000   -0.07407
2382.50000   -0.05735
2383.00000   -0.04166
2383.50000   -0.02734
2384.00000   -0.01465
2384.50000   -0.00374
2385.00000    0.00536
2385.50000    0.01268
2386.00000    0.01836
2386.50000    0.02261
2387.00000    0.02566
2387.50000    0.02781
2388.00000    0.02935
2388.50000    0.03054
2389.00000    0.03164
2389.50000    0.03286
2390.00000    0.03435
2390.50000    0.03621
2391.00000    0.03847
2391.50000    0.04113
2392.00000    0.04412
2392.50000    0.04735
2393.00000    0.05071
2393.50000    0.05406
2394.00000    0.05727
2394.50000    0.06024
2395.00000    0.06287
2395.50000    0.06510
2396.00000    0.06691
2396.50000    0.06829
2397.00000    0.06931
2397.50000    0.07003
2398.00000    0.07057
2398.50000    0.07103
2399.00000    0.07156
2399.50000    0.07231
2400.00000    0.07341
2400.50000    0.07500
2401.00000    0.07720
2401.50000    0.08010
2402.00000    0.08378
2402.50000    0.08828
2403.00000    0.09363
2403.50000    0.09981
2404.00000    0.10676
2404.50000    0.11442
2405.00000    0.12267
2405.50000    0.13136
2406.00000    0.14032
2406.50000    0.14934
2407.00000    0.15819
2407.50000    0.16662
2408.00000    0.17435
2408.50000    0.18112
2409.00000    0.18665
2409.50000    0.19065
2410.00000    0.19287
2410.50000    0.19309
2411.00000    0.19110
2411.50000    0.18675
2412.00000    0.17994
2412.50000    0.17063
2413.00000    0.15884
2413.50000    0.14465
2414.00000    0.12822
2414.50000    0.10978
2415.00000    0.08958
2415.50000    0.06798
2416.00000    0.04533
2416.50000    0.02204
2417.00000   -0.00146
2417.50000   -0.02476
2418.00000   -0.04743
2418.50000   -0.06909
2419.00000   -0.08937
2419.50000   -0.10797
2420.00000   -0.12463
2420.50000   -0.13916
2421.00000   -0.15146
2421.50000   -0.16147
2422.00000   -0.16922
2422.50000   -0.17480
2423.00000   -0.17837
2423.50000   -0.18013
2424.00000   -0.18034
2424.50000   -0.17927
2425.00000   -0.17720
2425.50000   -0.17444
2426.00000   -0.17125
2426.50000   -0.16787
2427.00000   -0.16450
2427.50000   -0.16126
2428.00000   -0.15823
2428.50000   -0.15540
2429.00000   -0.15268
2429.50000   -0.14990
2430.00000   -0.14684
2430.50000   -0.14320
2431.00000   -0.13863
2431.50000   -0.13276
2432.00000   -0.12520
2432.50000   -0.11556
2433.00000   -0.10351
2433.50000   -0.08874
2434.00000   -0.07104
2434.50000   -0.05028
2435.00000   -0.02646
2435.50000    0.00032
2436.00000    0.02982
2436.50000    0.06168
2437.00000    0.09543
2437.50000    0.13047
2438.00000    0.16613
2438.50000    0.20164
2439.00000    0.23623
2439.50000    0.26909
2440.00000    0.29943
2440.50000    0.32649
2441.00000    0.34961
2441.50000    0.36820
2442.00000    0.38179
2442.50000    0.39005
2443.00000    0.39277
2443.50000    0.38991
2444.00000    0.38155
2444.50000    0.36788
2445.00000    0.34926
2445.50000    0.32609
2446.00000    0.29888
2446.50000    0.26821
2447.00000    0.23467
2447.50000    0.19888
2448.00000    0.16144
2448.50000    0.12297
2449.00000    0.08402
2449.50000    0.04511
2450.00000    0.00674
2450.50000   -0.03067
2451.00000   -0.06671
2451.50000   -0.10104
2452.00000   -0.13333
2452.50000   -0.16330
2453.00000   -0.19066
2453.50000   -0.21517
2454.00000   -0.23660
2454.50000   -0.25472
2455.00000   -0.26932
2455.50000   -0.28022
2456.00000   -0.28726
2456.50000   -0.29031
2457.00000   -0.28929
2457.50000   -0.28418
2458.00000   -0.27499
2458.50000   -0.26182
2459.00000   -0.24484
2459.50000   -0.22428
2460.00000   -0.20046
2460.50000   -0.17375
2461.00000   -0.14460
2461.50000   -0.11348
2462.00000   -0.08093
2462.50000   -0.04750
2463.00000   -0.01373
2463.50000    0.01981
2464.00000    0.05262
2464.50000    0.08420
2465.00000    0.11410
2465.50000    0.14193
2466.00000    0.16737
2466.50000    0.19014
2467.00000    0.21002
2467.50000    0.22687
2468.00000    0.24058
2468.50000    0.25108
2469.00000    0.25834
2469.50000    0.26238
2470.00000    0.26323
2470.50000    0.26094
2471.00000    0.25560
2471.50000    0.24731
2472.00000    0.23619
2472.50000    0.22242
2473.00000    0.20617
2473.50000    0.18768
2474.00000    0.16723
2474.50000    0.14514
2475.00000    0.12179
2475.50000    0.09758
2476.00000    0.07297
2476.50000    0.04843
2477.00000    0.02446
2477.50000    0.00156
2478.00000   -0.01981
2478.50000   -0.03921
2479.00000   -0.05626
2479.50000   -0.07067
2480.00000   -0.08222
2480.50000   -0.09082
2481.00000   -0.09646
2481.50000   -0.09926
2482.00000   -0.09945
2482.50000   -0.09734
2483.00000   -0.09332
2483.50000   -0.08786
2484.00000   -0.08144
2484.50000   -0.07455
2485.00000   -0.06768
2485.50000   -0.06124
2486.00000   -0.05562
2486.50000   -0.05107
2487.00000   -0.04778
2487.50000   -0.04582
2488.00000   -0.04516
2488.50000   -0.04567
2489.00000   -0.04712
2489.50000   -0.04922
2490.00000   -0.05164
2490.50000   -0.05401
2491.00000   -0.05596
2491.50000   -0.05716
2492.00000   -0.05730
2492.50000   -0.05613
2493.00000   -0.05348
2493.50000   -0.04926
2494.00000   -0.04344
2494.50000   -0.03608
2495.00000   -0.02730
2495.50000   -0.01727
2496.00000   -0.00621
2496.50000    0.00567
2497.00000    0.01810
2497.50000    0.03088
2498.00000    0.04378
2498.50000    0.05661
2499.00000    0.06925
2499.50000    0.08156
2500.00000    0.09349
2500.50000    0.10498
2501.00000    0.11602
2501.50000    0.12661
2502.00000    0.13676
2502.50000    0.14648
2503.00000    0.15578
2503.50000    0.16464
2504.00000    0.17306
2504.50000    0.18101
2505.00000    0.18843
2505.50000    0.19528
2506.00000    0.20151
2506.50000    0.20703
2507.00000    0.21181
2507.50000    0.21578
2508.00000    0.21890
2508.50000    0.22112
2509.00000    0.22241
2509.50000    0.22274
2510.00000    0.22207
2510.50000    0.22037
2511.00000    0.21758
2511.50000    0.21365
2512.00000    0.20849
2512.50000    0.20200
2513.00000    0.19408
2513.50000    0.18461
2514.00000    0.17347
2514.50000    0.16053
2515.00000    0.14570
2515.50000    0.12891
2516.00000    0.11012
2516.50000    0.08935
2517.00000    0.06667
2517.50000    0.04221
2518.00000    0.01617
2518.50000   -0.01118
2519.00000   -0.03953
2519.50000   -0.06852
2520.00000   -0.09773
2520.50000   -0.12674
2521.00000   -0.15513
2521.50000   -0.18247
2522.00000   -0.20837
2522.50000   -0.23247
2523.00000   -0.25447
2523.50000   -0.27413
2524.00000   -0.29128
2524.50000   -0.30582
2525.00000   -0.31772
2525.50000   -0.32699
2526.00000   -0.33373
2526.50000   -0.33805
2527.00000   -0.34012
2527.50000   -0.34013
2528.00000   -0.33826
2528.50000   -0.33471
2529.00000   -0.32964
2529.50000   -0.32321
2530.00000   -0.31555
2530.50000   -0.30674
2531.00000   -0.29685
2531.50000   -0.28589
2532.00000   -0.27384
2532.50000   -0.26068
2533.00000   -0.24632
2533.50000   -0.23068
2534.00000   -0.21367
2534.50000   -0.19520
2535.00000   -0.17518
2535.50000   -0.15355
2536.00000   -0.13030
2536.50000   -0.10542
2537.00000   -0.07899
2537.50000   -0.05113
2538.00000   -0.02202
2538.50000    0.00808
2539.00000    0.03885
2539.50000    0.06990
2540.00000    0.10078
2540.50000    0.13099
2541.00000    0.16000
2541.50000    0.18725
2542.00000    0.21220
2542.50000    0.23429
2543.00000    0.25304
2543.50000    0.26799
2544.00000    0.27880
2544.50000    0.28518
2545.00000    0.28697
2545.50000    0.28414
2546.00000    0.27677
2546.50000    0.26503
2547.00000    0.24925
2547.50000    0.22982
2548.00000    0.20725
2548.50000    0.18208
2549.00000    0.15492
2549.50000    0.12638
2550.00000    0.09708
2550.50000    0.06762
2551.00000    0.03853
2551.50000    0.01030
2552.00000   -0.01666
2552.50000   -0.04203
2553.00000   -0.06557
2553.50000   -0.08712
2554.00000   -0.10660
2554.50000   -0.12402
2555.00000   -0.13941
2555.50000   -0.15288
2556.00000   -0.16455
2556.50000   -0.17456
2557.00000   -0.18305
2557.50000   -0.19014
2558.00000   -0.19594
2558.50000   -0.20051
2559.00000   -0.20388
2559.50000   -0.20604
2560.00000   -0.20695
2560.50000   -0.20652
2561.00000   -0.20466
2561.50000   -0.20124
2562.00000   -0.19613
2562.50000   -0.18923
2563.00000   -0.18044
2563.50000   -0.16971
2564.00000   -0.15700
2564.50000   -0.14238
2565.00000   -0.12592
2565.50000   -0.10781
2566.00000   -0.08825
2566.50000   -0.06754
2567.00000   -0.04602
2567.50000   -0.02405
2568.00000   -0.00206
2568.50000    0.01956
2569.00000    0.04037
2569.50000    0.06000
2570.00000    0.07808
2570.50000    0.09432
2571.00000    0.10848
2571.50000    0.12040
2572.00000    0.12999
2572.50000    0.13727
2573.00000    0.14229
2573.50000    0.14521
2574.00000    0.14623
2574.50000    0.14560
2575.00000    0.14361
2575.50000    0.14055
2576.00000    0.13671
2576.50000    0.13239
2577.00000    0.12785
2577.50000    0.12330
2578.00000    0.11893
2578.50000    0.11488
2579.00000    0.11125
2579.50000    0.10811
2580.00000    0.10549
2580.50000    0.10340
2581.00000    0.10186
2581.50000    0.10084
2582.00000    0.10036
2582.50000    0.10043
2583.00000    0.10106
2583.50000    0.10230
2584.00000    0.10419
2584.50000    0.10679
2585.00000    0.11013
2585.50000    0.11427
2586.00000    0.11921
2586.50000    0.12496
2587.00000    0.13146
2587.50000    0.13863
2588.00000    0.14634
2588.50000    0.15441
2589.00000    0.16263
2589.50000    0.17075
2590.00000    0.17849
2590.50000    0.18557
2591.00000    0.19169
2591.50000    0.19658
2592.00000    0.20000
2592.50000    0.20172
2593.00000    0.20158
2593.50000    0.19947
2594.00000    0.19531
2594.50000    0.18909
2595.00000    0.18087
2595.50000    0.17071
2596.00000    0.15874
2596.50000    0.14510
2597.00000    0.12995
2597.50000    0.11344
2598.00000    0.09573
2598.50000    0.07697
2599.00000    0.05730
2599.50000    0.03683
2600.00000    0.01568
2600.50000   -0.00606
2601.00000   -0.02827
2601.50000   -0.05086
2602.00000   -0.07367
2602.50000   -0.09657
2603.00000   -0.11935
2603.50000   -0.14178
2604.00000   -0.16361
2604.50000   -0.18452
2605.00000   -0.20420
2605.50000   -0.22230
2606.00000   -0.23848
2606.50000   -0.25239
2607.00000   -0.26375
2607.50000   -0.27229
2608.00000   -0.27785
2608.50000   -0.28031
2609.00000   -0.27968
2609.50000   -0.27604
2610.00000   -0.26959
2610.50000   -0.26063
2611.00000   -0.24953
2611.50000   -0.23677
2612.00000   -0.22285
2612.50000   -0.20832
2613.00000   -0.19376
2613.50000   -0.17969
2614.00000   -0.16664
2614.50000   -0.15506
2615.00000   -0.14531
2615.50000   -0.13767
2616.00000   -0.13233
2616.50000   -0.12936
2617.00000   -0.12871
2617.50000   -0.13027
2618.00000   -0.13382
2618.50000   -0.13905
2619.00000   -0.14563
2619.50000   -0.15317
2620.00000   -0.16126
2620.50000   -0.16949
2621.00000   -0.17746
2621.50000   -0.18479
2622.00000   -0.19113
2622.50000   -0.19620
2623.00000   -0.19973
2623.50000   -0.20152
2624.00000   -0.20141
2624.50000   -0.19927
2625.00000   -0.19504
2625.50000   -0.18867
2626.00000   -0.18017
2626.50000   -0.16955
2627.00000   -0.15688
2627.50000   -0.14224
2628.00000   -0.12575
2628.50000   -0.10754
2629.00000   -0.08780
2629.50000   -0.06671
2630.00000   -0.04452
2630.50000   -0.02149
2631.00000    0.00210
2631.50000    0.02593
2632.00000    0.04968
2632.50000    0.07299
2633.00000    0.09552
2633.50000    0.11693
2634.00000    0.13688
2634.50000    0.15507
2635.00000    0.17122
2635.50000    0.18511
2636.00000    0.19657
2636.50000    0.20547
2637.00000    0.21177
2637.50000    0.21550
2638.00000    0.21673
2638.50000    0.21563
2639.00000    0.21243
2639.50000    0.20742
2640.00000    0.20097
2640.50000    0.19348
2641.00000    0.18542
2641.50000    0.17728
2642.00000    0.16958
2642.50000    0.16288
2643.00000    0.15774
2643.50000    0.15471
2644.00000    0.15435
2644.50000    0.15719
2645.00000    0.16375
2645.50000    0.17450
2646.00000    0.18990
2646.50000    0.21033
2647.00000    0.23613
2647.50000    0.26762
2648.00000    0.30502
2648.50000    0.34852
2649.00000    0.39825
2649.50000    0.45429
2650.00000    0.51666
2650.50000    0.58534
2651.00000    0.66025
2651.50000    0.74129
2652.00000    0.82829
2652.50000    0.92107
2653.00000    1.01940
2653.50000    1.12303
2654.00000    1.23166
2654.50000    1.34500
2655.00000    1.46271
2655.50000    1.58444
2656.00000    1.70983
2656.50000    1.83852
2657.00000    1.97014
2657.50000    2.10433
2658.00000    2.24076
2658.50000    2.37912
2659.00000    2.51913
2659.50000    2.66060
2660.00000    2.80335
2660.50000    2.94732
2661.00000    3.09248
2661.50000    3.23893
2662.00000    3.38681
2662.50000    3.53635
2663.00000    3.68786
2663.50000    3.84170
2664.00000    3.99827
2664.50000    4.15800
2665.00000    4.32133
2665.50000    4.48866
2666.00000    4.66036
2666.50000    4.83675
2667.00000    5.01803
2667.50000    5.20431
2668.00000    5.39558
2668.50000    5.59171
2669.00000    5.79240
2669.50000    5.99724
2670.00000    6.20569
2670.50000    6.41705
2671.00000    6.63056
2671.50000    6.84532
2672.00000    7.06037
2672.50000    7.27471
2673.00000    7.48727
2673.50000    7.69699
2674.00000    7.90280
2674.50000    8.10366
2675.00000    8.29855
2675.50000    8.48650
2676.00000    8.66659
2676.50000    8.83797
2677.00000    8.99984
2677.50000    9.15146
2678.00000    9.29218
2678.50000    9.42138
2679.00000    9.53854
2679.50000    9.64319
2680.00000    9.73493
2680.50000    9.81341
2681.00000    9.87837
2681.50000    9.92960
2682.00000    9.96698
2682.50000    9.99044
2683.00000   10.00000
2683.50000    9.99573
2684.00000    9.97779
2684.50000    9.94640
2685.00000    9.90183
2685.50000    9.84441
2686.00000    9.77452
2686.50000    9.69257
2687.00000    9.59900
2687.50000    9.49426
2688.00000    9.37880
2688.50000    9.25309
2689.00000    9.11759
2689.50000    8.97273
2690.00000    8.81897
2690.50000    8.65673
2691.00000    8.48644
2691.50000    8.30854
2692.00000    8.12349
2692.50000    7.93175
2693.00000    7.73385
2693.50000    7.53034
2694.00000    7.32183
2694.50000    7.10899
2695.00000    6.89255
2695.50000    6.67330
2696.00000    6.45209
2696.50000    6.22980
2697.00000    6.00737
2697.50000    5.78574
2698.00000    5.56585
2698.50000    5.34863
2699.00000    5.13495
2699.50000    4.92564
2700.00000    4.72146
2700.50000    4.52305
2701.00000    4.33099
2701.50000    4.14570
2702.00000    3.96753
2702.50000    3.79671
2703.00000    3.63334
2703.50000    3.47746
2704.00000    3.32900
2704.50000    3.18783
2705.00000    3.05376
2705.50000    2.92658
2706.00000    2.80602
2706.50000    2.69182
2707.00000    2.58372
2707.50000    2.48145
2708.00000    2.38478
2708.50000    2.29346
2709.00000    2.20731
2709.50000    2.12610
2710.00000    2.04968
2710.50000    1.97785
2711.00000    1.91045
2711.50000    1.84732
2712.00000    1.78827
2712.50000    1.73310
2713.00000    1.68163
2713.50000    1.63361
2714.00000    1.58880
2714.50000    1.54693
2715.00000    1.50772
2715.50000    1.47084
2716.00000    1.43598
2716.50000    1.40278
2717.00000    1.37090
2717.50000    1.33997
2718.00000    1.30965
2718.50000    1.27958
2719.00000    1.24944
2719.50000    1.21892
2720.00000    1.18777
2720.50000    1.15573
2721.00000    1.12263
2721.50000    1.08833
2722.00000    1.05274
2722.50000    1.01583
2723.00000    0.97761
2723.50000    0.93817
2724.00000    0.89760
2724.50000    0.85608
2725.00000    0.81377
2725.50000    0.77089
2726.00000    0.72767
2726.50000    0.68435
2727.00000    0.64117
2727.50000    0.59837
2728.00000    0.55619
2728.50000    0.51488
2729.00000    0.47466
2729.50000    0.43577
2730.00000    0.39844
2730.50000    0.36289
2731.00000    0.32936
2731.50000    0.29808
2732.00000    0.26927
2732.50000    0.24315
2733.00000    0.21992
2733.50000    0.19977
2734.00000    0.18282
2734.50000    0.16917
2735.00000    0.15885
2735.50000    0.15183
2736.00000    0.14798
2736.50000    0.14711
2737.00000    0.14893
2737.50000    0.15307
2738.00000    0.15911
2738.50000    0.16652
2739.00000    0.17478
2739.50000    0.18328
2740.00000    0.19144
2740.50000    0.19868
2741.00000    0.20442
2741.50000    0.20816
2742.00000    0.20943
2742.50000    0.20783
2743.00000    0.20304
2743.50000    0.19481
2744.00000    0.18297
2744.50000    0.16742
2745.00000    0.14814
2745.50000    0.12515
2746.00000    0.09857
2746.50000    0.06855
2747.00000    0.03531
2747.50000   -0.00088
2748.00000   -0.03969
2748.50000   -0.08073
2749.00000   -0.12353
2749.50000   -0.16758
2750.00000   -0.21227
2750.50000   -0.25696
2751.00000   -0.30092
2751.50000   -0.34338
2752.00000   -0.38353
2752.50000   -0.42053
2753.00000   -0.45355
2753.50000   -0.48179
2754.00000   -0.50449
2754.50000   -0.52097
2755.00000   -0.53065
2755.50000   -0.53306
2756.00000   -0.52790
2756.50000   -0.51498
2757.00000   -0.49431
2757.50000   -0.46602
2758.00000   -0.43040
2758.50000   -0.38788
2759.00000   -0.33900
2759.50000   -0.28440
2760.00000   -0.22479
2760.50000   -0.16095
2761.00000   -0.09367
2761.50000   -0.02376
2762.00000    0.04796
2762.50000    0.12070
2763.00000    0.19369
2763.50000    0.26618
2764.00000    0.33745
2764.50000    0.40681
2765.00000    0.47362
2765.50000    0.53727
2766.00000    0.59716
2766.50000    0.65278
2767.00000    0.70364
2767.50000    0.74930
2768.00000    0.78941
2768.50000    0.82368
2769.00000    0.85191
2769.50000    0.87399
2770.00000    0.88993
2770.50000    0.89980
2771.00000    0.90381
2771.50000    0.90224
2772.00000    0.89546
2772.50000    0.88392
2773.00000    0.86809
2773.50000    0.84852
2774.00000    0.82572
2774.50000    0.80023
2775.00000    0.77254
2775.50000    0.74310
2776.00000    0.71230
2776.50000    0.68047
2777.00000    0.64787
2777.50000    0.61469
2778.00000    0.58106
2778.50000    0.54705
2779.00000    0.51271
2779.50000    0.47807
2780.00000    0.44314
2780.50000    0.40796
2781.00000    0.37259
2781.50000    0.33713
2782.00000    0.30172
2782.50000    0.26658
2783.00000    0.23194
2783.50000    0.19812
2784.00000    0.16546
2784.50000    0.13433
2785.00000    0.10513
2785.50000    0.07826
2786.00000    0.05409
2786.50000    0.03299
2787.00000    0.01528
2787.50000    0.00122
2788.00000   -0.00899
2788.50000   -0.01519
2789.00000   -0.01732
2789.50000   -0.01538
2790.00000   -0.00944
2790.50000    0.00039
2791.00000    0.01391
2791.50000    0.03089
2792.00000    0.05108
2792.50000    0.07417
2793.00000    0.09986
2793.50000    0.12782
2794.00000    0.15774
2794.50000    0.18928
2795.00000    0.22214
2795.50000    0.25601
2796.00000    0.29058
2796.50000    0.32555
2797.00000    0.36063
2797.50000    0.39551
2798.00000    0.42988
2798.50000    0.46341
2799.00000    0.49577
2799.50000    0.52658
2800.00000    0.55547
2800.50000    0.58203
2801.00000    0.60586
2801.50000    0.62653
2802.00000    0.64362
2802.50000    0.65674
2803.00000    0.66552
2803.50000    0.66962
2804.00000    0.66878
2804.50000    0.66280
2805.00000    0.65156
2805.50000    0.63503
2806.00000    0.61331
2806.50000    0.58656
2807.00000    0.55507
2807.50000    0.51922
2808.00000    0.47947
2808.50000    0.43638
2809.00000    0.39053
2809.50000    0.34259
2810.00000    0.29323
2810.50000    0.24314
2811.00000    0.19300
2811.50000    0.14346
2812.00000    0.09515
2812.50000    0.04867
2813.00000    0.00452
2813.50000   -0.03681
2814.00000   -0.07491
2814.50000   -0.10943
2815.00000   -0.14007
2815.50000   -0.16659
2816.00000   -0.18880
2816.50000   -0.20656
2817.00000   -0.21978
2817.50000   -0.22842
2818.00000   -0.23248
2818.50000   -0.23202
2819.00000   -0.22714
2819.50000   -0.21801
2820.00000   -0.20485
2820.50000   -0.18792
2821.00000   -0.16759
2821.50000   -0.14422
2822.00000   -0.11829
2822.50000   -0.09028
2823.00000   -0.06073
2823.50000   -0.03019
2824.00000    0.00076
2824.50000    0.03155
2825.00000    0.06165
2825.50000    0.09055
2826.00000    0.11779
2826.50000    0.14297
2827.00000    0.16577
2827.50000    0.18595
2828.00000    0.20333
2828.50000    0.21781
2829.00000    0.22937
2829.50000    0.23800
2830.00000    0.24377
2830.50000    0.24676
2831.00000    0.24706
2831.50000    0.24476
2832.00000    0.23995
2832.50000    0.23267
2833.00000    0.22297
2833.50000    0.21087
2834.00000    0.19638
2834.50000    0.17950
2835.00000    0.16025
2835.50000    0.13866
2836.00000    0.11481
2836.50000    0.08882
2837.00000    0.06091
2837.50000    0.03132
2838.00000    0.00042
2838.50000   -0.03138
2839.00000   -0.06359
2839.50000   -0.09564
2840.00000   -0.12695
2840.50000   -0.15691
2841.00000   -0.18491
2841.50000   -0.21038
2842.00000   -0.23279
2842.50000   -0.25170
2843.00000   -0.26676
2843.50000   -0.27776
2844.00000   -0.28458
2844.50000   -0.28724
2845.00000   -0.28591
2845.50000   -0.28084
2846.00000   -0.27240
2846.50000   -0.26105
2847.00000   -0.24731
2847.50000   -0.23172
2848.00000   -0.21485
2848.50000   -0.19724
2849.00000   -0.17940
2849.50000   -0.16178
2850.00000   -0.14477
2850.50000   -0.12866
2851.00000   -0.11367
2851.50000   -0.09992
2852.00000   -0.08745
2852.50000   -0.07623
2853.00000   -0.06615
2853.50000   -0.05706
2854.00000   -0.04878
2854.50000   -0.04110
2855.00000   -0.03382
2855.50000   -0.02676
2856.00000   -0.01975
2856.50000   -0.01270
2857.00000   -0.00553
2857.50000    0.00176
2858.00000    0.00911
2858.50000    0.01641
2859.00000    0.02350
2859.50000    0.03019
2860.00000    0.03625
2860.50000    0.04145
2861.00000    0.04559
2861.50000    0.04846
2862.00000    0.04994
2862.50000    0.04994
2863.00000    0.04847
2863.50000    0.04562
2864.00000    0.04157
2864.50000    0.03659
2865.00000    0.03105
2865.50000    0.02537
2866.00000    0.02002
2866.50000    0.01551
2867.00000    0.01235
2867.50000    0.01102
2868.00000    0.01193
2868.50000    0.01544
2869.00000    0.02177
2869.50000    0.03104
2870.00000    0.04323
2870.50000    0.05820
2871.00000    0.07566
2871.50000    0.09520
2872.00000    0.11631
2872.50000    0.13842
2873.00000    0.16089
2873.50000    0.18305
2874.00000    0.20426
2874.50000    0.22390
2875.00000    0.24144
2875.50000    0.25640
2876.00000    0.26843
2876.50000    0.27728
2877.00000    0.28280
2877.50000    0.28499
2878.00000    0.28389
2878.50000    0.27969
2879.00000    0.27260
2879.50000    0.26291
2880.00000    0.25093
2880.50000    0.23698
2881.00000    0.22139
2881.50000    0.20448
2882.00000    0.18650
2882.50000    0.16773
2883.00000    0.14836
2883.50000    0.12860
2884.00000    0.10858
2884.50000    0.08844
2885.00000    0.06830
2885.50000    0.04826
2886.00000    0.02841
2886.50000    0.00885
2887.00000   -0.01031
2887.50000   -0.02897
2888.00000   -0.04703
2888.50000   -0.06436
2889.00000   -0.08087
2889.50000   -0.09644
2890.00000   -0.11096
2890.50000   -0.12434
2891.00000   -0.13648
2891.50000   -0.14731
2892.00000   -0.15677
2892.50000   -0.16479
2893.00000   -0.17134
2893.50000   -0.17640
2894.00000   -0.17996
2894.50000   -0.18204
2895.00000   -0.18268
2895.50000   -0.18192
2896.00000   -0.17987
2896.50000   -0.17665
2897.00000   -0.17239
2897.50000   -0.16728
2898.00000   -0.16151
2898.50000   -0.15529
2899.00000   -0.14880
2899.50000   -0.14222
