1200.50000   -0.06828
1201.00000   -0.01626
1201.50000    0.03574
1202.00000    0.08764
1202.50000    0.13936
1203.00000    0.19076
1203.50000    0.24164
1204.00000    0.29179
1204.50000    0.34095
1205.00000    0.38886
1205.50000    0.43523
1206.00000    0.47980
1206.50000    0.52229
1207.00000    0.56247
1207.50000    0.60015
1208.00000    0.63515
1208.50000    0.66737
1209.00000    0.69675
1209.50000    0.72327
1210.00000    0.74697
1210.50000    0.76793
1211.00000    0.78626
1211.50000    0.80209
1212.00000    0.81558
1212.50000    0.82687
1213.00000    0.83611
1213.50000    0.84343
1214.00000    0.84890
1214.50000    0.85257
1215.00000    0.85446
1215.50000    0.85452
1216.00000    0.85267
1216.50000    0.84877
1217.00000    0.84265
1217.50000    0.83412
1218.00000    0.82295
1218.50000    0.80892
1219.00000    0.79181
1219.50000    0.77142
1220.00000    0.74758
1220.50000    0.72017
1221.00000    0.68913
1221.50000    0.65445
1222.00000    0.61621
1222.50000    0.57455
1223.00000    0.52968
1223.50000    0.48188
1224.00000    0.43152
1224.50000    0.37900
1225.00000    0.32477
1225.50000    0.26934
1226.00000    0.21320
1226.50000    0.15690
1227.00000    0.10097
1227.50000    0.04590
1228.00000   -0.00779
1228.50000   -0.05967
1229.00000   -0.10930
1229.50000   -0.15632
1230.00000   -0.20040
1230.50000   -0.24126
1231.00000   -0.27866
1231.50000   -0.31243
1232.00000   -0.34241
1232.50000   -0.36851
1233.00000   -0.39064
1233.50000   -0.40878
1234.00000   -0.42291
1234.50000   -0.43305
1235.00000   -0.43924
1235.50000   -0.44155
1236.00000   -0.44006
1236.50000   -0.43490
1237.00000   -0.42621
1237.50000   -0.41415
1238.00000   -0.39894
1238.50000   -0.38081
1239.00000   -0.36002
1239.50000   -0.33687
1240.00000   -0.31170
1240.50000   -0.28485
1241.00000   -0.25671
1241.50000   -0.22766
1242.00000   -0.19812
1242.50000   -0.16848
1243.00000   -0.13915
1243.50000   -0.11048
1244.00000   -0.08284
1244.50000   -0.05654
1245.00000   -0.03183
1245.50000   -0.00893
1246.00000    0.01201
1246.50000    0.03090
1247.00000    0.04771
1247.50000    0.06248
1248.00000    0.07529
1248.50000    0.08630
1249.00000    0.09570
1249.50000    0.10373
1250.00000    0.11066
1250.50000    0.11677
1251.00000    0.12236
1251.50000    0.12775
1252.00000    0.13322
1252.50000    0.13906
1253.00000    0.14552
1253.50000    0.15282
1254.00000    0.16116
1254.50000    0.17068
1255.00000    0.18150
1255.50000    0.19369
1256.00000    0.20727
1256.50000    0.22223
1257.00000    0.23852
1257.50000    0.25605
1258.00000    0.27471
1258.50000    0.29433
1259.00000    0.31475
1259.50000    0.33576
1260.00000    0.35713
1260.50000    0.37862
1261.00000    0.39999
1261.50000    0.42095
1262.00000    0.44124
1262.50000    0.46057
1263.00000    0.47867
1263.50000    0.49527
1264.00000    0.51009
1264.50000    0.52289
1265.00000    0.53344
1265.50000    0.54154
1266.00000    0.54701
1266.50000    0.54973
1267.00000    0.54960
1267.50000    0.54656
1268.00000    0.54063
1268.50000    0.53186
1269.00000    0.52035
1269.50000    0.50627
1270.00000    0.48982
1270.50000    0.47127
1271.00000    0.45091
1271.50000    0.42907
1272.00000    0.40610
1272.50000    0.38236
1273.00000    0.35822
1273.50000    0.33404
1274.00000    0.31014
1274.50000    0.28683
1275.00000    0.26437
1275.50000    0.24298
1276.00000    0.22281
1276.50000    0.20397
1277.00000    0.18649
1277.50000    0.17035
1278.00000    0.15546
1278.50000    0.14170
1279.00000    0.12888
1279.50000    0.11679
1280.00000    0.10520
1280.50000    0.09385
1281.00000    0.08251
1281.50000    0.07094
1282.00000    0.05892
1282.50000    0.04628
1283.00000    0.03287
1283.50000    0.01858
1284.00000    0.00338
1284.50000   -0.01274
1285.00000   -0.02974
1285.50000   -0.04754
1286.00000   -0.06600
1286.50000   -0.08497
1287.00000   -0.10428
1287.50000   -0.12375
1288.00000   -0.14317
1288.50000   -0.16238
1289.00000   -0.18118
1289.50000   -0.19942
1290.00000   -0.21696
1290.50000   -0.23370
1291.00000   -0.24952
1291.50000   -0.26436
1292.00000   -0.27817
1292.50000   -0.29090
1293.00000   -0.30252
1293.50000   -0.31302
1294.00000   -0.32235
1294.50000   -0.33050
1295.00000   -0.33744
1295.50000   -0.34311
1296.00000   -0.34748
1296.50000   -0.35048
1297.00000   -0.35207
1297.50000   -0.35219
1298.00000   -0.35078
1298.50000   -0.34781
1299.00000   -0.34326
1299.50000   -0.33713
1300.00000   -0.32943
1300.50000   -0.32022
1301.00000   -0.30955
1301.50000   -0.29753
1302.00000   -0.28428
1302.50000   -0.26992
1303.00000   -0.25460
1303.50000   -0.23846
1304.00000   -0.22164
1304.50000   -0.20428
1305.00000   -0.18648
1305.50000   -0.16832
1306.00000   -0.14987
1306.50000   -0.13115
1307.00000   -0.11216
1307.50000   -0.09290
1308.00000   -0.07332
1308.50000   -0.05338
1309.00000   -0.03303
1309.50000   -0.01226
1310.00000    0.00896
1310.50000    0.03060
1311.00000    0.05257
1311.50000    0.07477
1312.00000    0.09700
1312.50000    0.11904
1313.00000    0.14058
1313.50000    0.16127
1314.00000    0.18073
1314.50000    0.19853
1315.00000    0.21425
1315.50000    0.22744
1316.00000    0.23770
1316.50000    0.24466
1317.00000    0.24802
1317.50000    0.24753
1318.00000    0.24307
1318.50000    0.23459
1319.00000    0.22217
1319.50000    0.20601
1320.00000    0.18643
1320.50000    0.16388
1321.00000    0.13889
1321.50000    0.11213
1322.00000    0.08433
1322.50000    0.05628
1323.00000    0.02884
1323.50000    0.00288
1324.00000   -0.02072
1324.50000   -0.04108
1325.00000   -0.05738
1325.50000   -0.06884
1326.00000   -0.07473
1326.50000   -0.07441
1327.00000   -0.06735
1327.50000   -0.05309
1328.00000   -0.03129
1328.50000   -0.00171
1329.00000    0.03576
1329.50000    0.08114
1330.00000    0.13435
1330.50000    0.19520
1331.00000    0.26338
1331.50000    0.33853
1332.00000    0.42019
1332.50000    0.50782
1333.00000    0.60083
1333.50000    0.69857
1334.00000    0.80031
1334.50000    0.90532
1335.00000    1.01282
1335.50000    1.12200
1336.00000    1.23204
1336.50000    1.34210
1337.00000    1.45137
1337.50000    1.55902
1338.00000    1.66426
1338.50000    1.76631
1339.00000    1.86445
1339.50000    1.95801
1340.00000    2.04635
1340.50000    2.12895
1341.00000    2.20532
1341.50000    2.27508
1342.00000    2.33795
1342.50000    2.39372
1343.00000    2.44231
1343.50000    2.48372
1344.00000    2.51808
1344.50000    2.54558
1345.00000    2.56655
1345.50000    2.58136
1346.00000    2.59049
1346.50000    2.59445
1347.00000    2.59383
1347.50000    2.58922
1348.00000    2.58121
1348.50000    2.57041
1349.00000    2.55736
1349.50000    2.54258
1350.00000    2.52647
1350.50000    2.50939
1351.00000    2.49157
1351.50000    2.47314
1352.00000    2.45412
1352.50000    2.43440
1353.00000    2.41379
1353.50000    2.39197
1354.00000    2.36855
1354.50000    2.34308
1355.00000    2.31506
1355.50000    2.28396
1356.00000    2.24928
1356.50000    2.21054
1357.00000    2.16732
1357.50000    2.11929
1358.00000    2.06623
1358.50000    2.00804
1359.00000    1.94473
1359.50000    1.87647
1360.00000    1.80356
1360.50000    1.72642
1361.00000    1.64560
1361.50000    1.56175
1362.00000    1.47559
1362.50000    1.38788
1363.00000    1.29946
1363.50000    1.21112
1364.00000    1.12365
1364.50000    1.03782
1365.00000    0.95429
1365.50000    0.87366
1366.00000    0.79642
1366.50000    0.72298
1367.00000    0.65363
1367.50000    0.58854
1368.00000    0.52782
1368.50000    0.47147
1369.00000    0.41945
1369.50000    0.37165
1370.00000    0.32791
1370.50000    0.28808
1371.00000    0.25196
1371.50000    0.21939
1372.00000    0.19019
1372.50000    0.16424
1373.00000    0.14138
1373.50000    0.12153
1374.00000    0.10458
1374.50000    0.09045
1375.00000    0.07907
1375.50000    0.07035
1376.00000    0.06417
1376.50000    0.06041
1377.00000    0.05892
1377.50000    0.05950
1378.00000    0.06193
1378.50000    0.06594
1379.00000    0.07125
1379.50000    0.07756
1380.00000    0.08454
1380.50000    0.09187
1381.00000    0.09925
1381.50000    0.10637
1382.00000    0.11298
1382.50000    0.11884
1383.00000    0.12378
1383.50000    0.12767
1384.00000    0.13042
1384.50000    0.13201
1385.00000    0.13243
1385.50000    0.13175
1386.00000    0.13001
1386.50000    0.12732
1387.00000    0.12375
1387.50000    0.11938
1388.00000    0.11430
1388.50000    0.10854
1389.00000    0.10214
1389.50000    0.09508
1390.00000    0.08736
1390.50000    0.07892
1391.00000    0.06972
1391.50000    0.05970
1392.00000    0.04881
1392.50000    0.03701
1393.00000    0.02432
1393.50000    0.01076
1394.00000   -0.00359
1394.50000   -0.01859
1395.00000   -0.03406
1395.50000   -0.04978
1396.00000   -0.06547
1396.50000   -0.08083
1397.00000   -0.09555
1397.50000   -0.10931
1398.00000   -0.12178
1398.50000   -0.13268
1399.00000   -0.14176
1399.50000   -0.14882
1400.00000   -0.15372
1400.50000   -0.15640
1401.00000   -0.15686
1401.50000   -0.15520
1402.00000   -0.15156
1402.50000   -0.14619
1403.00000   -0.13934
1403.50000   -0.13136
1404.00000   -0.12258
1404.50000   -0.11338
1405.00000   -0.10411
1405.50000   -0.09511
1406.00000   -0.08671
1406.50000   -0.07918
1407.00000   -0.07275
1407.50000   -0.06760
1408.00000   -0.06386
1408.50000   -0.06162
1409.00000   -0.06091
1409.50000   -0.06172
1410.00000   -0.06403
1410.50000   -0.06777
1411.00000   -0.07285
1411.50000   -0.07920
1412.00000   -0.08672
1412.50000   -0.09531
1413.00000   -0.10491
1413.50000   -0.11541
1414.00000   -0.12675
1414.50000   -0.13885
1415.00000   -0.15163
1415.50000   -0.16501
1416.00000   -0.17889
1416.50000   -0.19317
1417.00000   -0.20772
1417.50000   -0.22240
1418.00000   -0.23706
1418.50000   -0.25153
1419.00000   -0.26560
1419.50000   -0.27909
1420.00000   -0.29179
1420.50000   -0.30349
1421.00000   -0.31400
1421.50000   -0.32313
1422.00000   -0.33072
1422.50000   -0.33660
1423.00000   -0.34065
1423.50000   -0.34276
1424.00000   -0.34283
1424.50000   -0.34079
1425.00000   -0.33658
1425.50000   -0.33014
1426.00000   -0.32143
1426.50000   -0.31039
1427.00000   -0.29698
1427.50000   -0.28115
1428.00000   -0.26286
1428.50000   -0.24207
1429.00000   -0.21873
1429.50000   -0.19285
1430.00000   -0.16443
1430.50000   -0.13353
1431.00000   -0.10025
1431.50000   -0.06475
1432.00000   -0.02727
1432.50000    0.01187
1433.00000    0.05228
1433.50000    0.09346
1434.00000    0.13487
1434.50000    0.17586
1435.00000    0.21574
1435.50000    0.25377
1436.00000    0.28919
1436.50000    0.32124
1437.00000    0.34918
1437.50000    0.37233
1438.00000    0.39007
1438.50000    0.40189
1439.00000    0.40741
1439.50000    0.40637
1440.00000    0.39869
1440.50000    0.38444
1441.00000    0.36386
1441.50000    0.33735
1442.00000    0.30548
1442.50000    0.26894
1443.00000    0.22855
1443.50000    0.18522
1444.00000    0.13993
1444.50000    0.09371
1445.00000    0.04757
1445.50000    0.00254
1446.00000   -0.04042
1446.50000   -0.08042
1447.00000   -0.11663
1447.50000   -0.14835
1448.00000   -0.17501
1448.50000   -0.19615
1449.00000   -0.21145
1449.50000   -0.22074
1450.00000   -0.22397
1450.50000   -0.22123
1451.00000   -0.21273
1451.50000   -0.19879
1452.00000   -0.17983
1452.50000   -0.15635
1453.00000   -0.12893
1453.50000   -0.09819
1454.00000   -0.06481
1454.50000   -0.02947
1455.00000    0.00711
1455.50000    0.04424
1456.00000    0.08124
1456.50000    0.11744
1457.00000    0.15223
1457.50000    0.18507
1458.00000    0.21544
1458.50000    0.24293
1459.00000    0.26719
1459.50000    0.28796
1460.00000    0.30508
1460.50000    0.31846
1461.00000    0.32811
1461.50000    0.33413
1462.00000    0.33670
1462.50000    0.33604
1463.00000    0.33247
1463.50000    0.32631
1464.00000    0.31796
1464.50000    0.30778
1465.00000    0.29617
1465.50000    0.28349
1466.00000    0.27010
1466.50000    0.25631
1467.00000    0.24237
1467.50000    0.22851
1468.00000    0.21489
1468.50000    0.20162
1469.00000    0.18876
1469.50000    0.17632
1470.00000    0.16430
1470.50000    0.15266
1471.00000    0.14132
1471.50000    0.13024
1472.00000    0.11936
1472.50000    0.10865
1473.00000    0.09808
1473.50000    0.08766
1474.00000    0.07743
1474.50000    0.06747
1475.00000    0.05784
1475.50000    0.04867
1476.00000    0.04006
1476.50000    0.03214
1477.00000    0.02501
1477.50000    0.01877
1478.00000    0.01349
1478.50000    0.00920
1479.00000    0.00589
1479.50000    0.00351
1480.00000    0.00197
1480.50000    0.00113
1481.00000    0.00081
1481.50000    0.00079
1482.00000    0.00084
1482.50000    0.00070
1483.00000    0.00012
1483.50000   -0.00115
1484.00000   -0.00334
1484.50000   -0.00665
1485.00000   -0.01124
1485.50000   -0.01723
1486.00000   -0.02470
1486.50000   -0.03365
1487.00000   -0.04406
1487.50000   -0.05585
1488.00000   -0.06888
1488.50000   -0.08300
1489.00000   -0.09800
1489.50000   -0.11366
1490.00000   -0.12975
1490.50000   -0.14602
1491.00000   -0.16225
1491.50000   -0.17821
1492.00000   -0.19369
1492.50000   -0.20851
1493.00000   -0.22253
1493.50000   -0.23562
1494.00000   -0.24770
1494.50000   -0.25870
1495.00000   -0.26859
1495.50000   -0.27737
1496.00000   -0.28505
1496.50000   -0.29165
1497.00000   -0.29720
1497.50000   -0.30174
1498.00000   -0.30530
1498.50000   -0.30790
1499.00000   -0.30955
1499.50000   -0.31023
1500.00000   -0.30993
1500.50000   -0.30860
1501.00000   -0.30616
1501.50000   -0.30253
1502.00000   -0.29762
1502.50000   -0.29132
1503.00000   -0.28352
1503.50000   -0.27411
1504.00000   -0.26300
1504.50000   -0.25012
1505.00000   -0.23542
1505.50000   -0.21889
1506.00000   -0.20054
1506.50000   -0.18044
1507.00000   -0.15871
1507.50000   -0.13549
1508.00000   -0.11098
1508.50000   -0.08541
1509.00000   -0.05906
1509.50000   -0.03221
1510.00000   -0.00518
1510.50000    0.02172
1511.00000    0.04817
1511.50000    0.07387
1512.00000    0.09854
1512.50000    0.12193
1513.00000    0.14383
1513.50000    0.16409
1514.00000    0.18256
1514.50000    0.19919
1515.00000    0.21392
1515.50000    0.22675
1516.00000    0.23771
1516.50000    0.24685
1517.00000    0.25423
1517.50000    0.25989
1518.00000    0.26388
1518.50000    0.26625
1519.00000    0.26700
1519.50000    0.26610
1520.00000    0.26352
1520.50000    0.25916
1521.00000    0.25293
1521.50000    0.24469
1522.00000    0.23430
1522.50000    0.22161
1523.00000    0.20648
1523.50000    0.18881
1524.00000    0.16851
1524.50000    0.14554
1525.00000    0.11994
1525.50000    0.09181
1526.00000    0.06131
1526.50000    0.02870
1527.00000   -0.00569
1527.50000   -0.04144
1528.00000   -0.07807
1528.50000   -0.11503
1529.00000   -0.15172
1529.50000   -0.18748
1530.00000   -0.22165
1530.50000   -0.25356
1531.00000   -0.28256
1531.50000   -0.30801
1532.00000   -0.32935
1532.50000   -0.34607
1533.00000   -0.35775
1533.50000   -0.36409
1534.00000   -0.36488
1534.50000   -0.36003
1535.00000   -0.34960
1535.50000   -0.33373
1536.00000   -0.31273
1536.50000   -0.28697
1537.00000   -0.25698
1537.50000   -0.22332
1538.00000   -0.18668
1538.50000   -0.14778
1539.00000   -0.10737
1539.50000   -0.06624
1540.00000   -0.02517
1540.50000    0.01507
1541.00000    0.05375
1541.50000    0.09022
1542.00000    0.12385
1542.50000    0.15413
1543.00000    0.18064
1543.50000    0.20303
1544.00000    0.22108
1544.50000    0.23466
1545.00000    0.24375
1545.50000    0.24842
1546.00000    0.24883
1546.50000    0.24521
1547.00000    0.23786
1547.50000    0.22715
1548.00000    0.21347
1548.50000    0.19727
1549.00000    0.17899
1549.50000    0.15910
1550.00000    0.13807
1550.50000    0.11634
1551.00000    0.09436
1551.50000    0.07253
1552.00000    0.05123
1552.50000    0.03080
1553.00000    0.01154
1553.50000   -0.00628
1554.00000   -0.02246
1554.50000   -0.03682
1555.00000   -0.04924
1555.50000   -0.05961
1556.00000   -0.06790
1556.50000   -0.07407
1557.00000   -0.07814
1557.50000   -0.08012
1558.00000   -0.08005
1558.50000   -0.07797
1559.00000   -0.07392
1559.50000   -0.06791
1560.00000   -0.05997
1560.50000   -0.05007
1561.00000   -0.03816
1561.50000   -0.02418
1562.00000   -0.00803
1562.50000    0.01045
1563.00000    0.03140
1563.50000    0.05502
1564.00000    0.08151
1564.50000    0.11109
1565.00000    0.14396
1565.50000    0.18032
1566.00000    0.22036
1566.50000    0.26424
1567.00000    0.31206
1567.50000    0.36391
1568.00000    0.41983
1568.50000    0.47981
1569.00000    0.54380
1569.50000    0.61173
1570.00000    0.68349
1570.50000    0.75895
1571.00000    0.83799
1571.50000    0.92049
1572.00000    1.00633
1572.50000    1.09543
1573.00000    1.18771
1573.50000    1.28316
1574.00000    1.38180
1574.50000    1.48366
1575.00000    1.58884
1575.50000    1.69744
1576.00000    1.80960
1576.50000    1.92545
1577.00000    2.04514
1577.50000    2.16877
1578.00000    2.29644
1578.50000    2.42816
1579.00000    2.56393
1579.50000    2.70365
1580.00000    2.84715
1580.50000    2.99420
1581.00000    3.14446
1581.50000    3.29750
1582.00000    3.45284
1582.50000    3.60989
1583.00000    3.76797
1583.50000    3.92637
1584.00000    4.08427
1584.50000    4.24081
1585.00000    4.39506
1585.50000    4.54605
1586.00000    4.69276
1586.50000    4.83415
1587.00000    4.96912
1587.50000    5.09660
1588.00000    5.21545
1588.50000    5.32459
1589.00000    5.42291
1589.50000    5.50938
1590.00000    5.58298
1590.50000    5.64279
1591.00000    5.68798
1591.50000    5.71781
1592.00000    5.73171
1592.50000    5.72925
1593.00000    5.71019
1593.50000    5.67447
1594.00000    5.62223
1594.50000    5.55383
1595.00000    5.46986
1595.50000    5.37109
1596.00000    5.25851
1596.50000    5.13329
1597.00000    4.99674
1597.50000    4.85034
1598.00000    4.69565
1598.50000    4.53430
1599.00000    4.36796
1599.50000    4.19828
1600.00000    4.02689
1600.50000    3.85533
1601.00000    3.68504
1601.50000    3.51733
1602.00000    3.35337
1602.50000    3.19414
1603.00000    3.04049
1603.50000    2.89306
1604.00000    2.75236
1604.50000    2.61873
1605.00000    2.49236
1605.50000    2.37331
1606.00000    2.26155
1606.50000    2.15694
1607.00000    2.05929
1607.50000    1.96833
1608.00000    1.88378
1608.50000    1.80533
1609.00000    1.73267
1609.50000    1.66550
1610.00000    1.60353
1610.50000    1.54646
1611.00000    1.49406
1611.50000    1.44607
1612.00000    1.40228
1612.50000    1.36248
1613.00000    1.32647
1613.50000    1.29406
1614.00000    1.26503
1614.50000    1.23920
1615.00000    1.21635
1615.50000    1.19625
1616.00000    1.17865
1616.50000    1.16331
1617.00000    1.14993
1617.50000    1.13824
1618.00000    1.12792
1618.50000    1.11866
1619.00000    1.11011
1619.50000    1.10196
1620.00000    1.09385
1620.50000    1.08546
1621.00000    1.07645
1621.50000    1.06651
1622.00000    1.05533
1622.50000    1.04265
1623.00000    1.02819
1623.50000    1.01174
1624.00000    0.99310
1624.50000    0.97211
1625.00000    0.94866
1625.50000    0.92266
1626.00000    0.89407
1626.50000    0.86292
1627.00000    0.82923
1627.50000    0.79311
1628.00000    0.75469
1628.50000    0.71415
1629.00000    0.67168
1629.50000    0.62754
1630.00000    0.58200
1630.50000    0.53535
1631.00000    0.48792
1631.50000    0.44004
1632.00000    0.39204
1632.50000    0.34428
1633.00000    0.29710
1633.50000    0.25083
1634.00000    0.20580
1634.50000    0.16232
1635.00000    0.12067
1635.50000    0.08112
1636.00000    0.04392
1636.50000    0.00927
1637.00000   -0.02264
1637.50000   -0.05166
1638.00000   -0.07765
1638.50000   -0.10051
1639.00000   -0.12017
1639.50000   -0.13660
1640.00000   -0.14976
1640.50000   -0.15969
1641.00000   -0.16642
1641.50000   -0.17004
1642.00000   -0.17064
1642.50000   -0.16839
1643.00000   -0.16345
1643.50000   -0.15606
1644.00000   -0.14646
1644.50000   -0.13495
1645.00000   -0.12188
1645.50000   -0.10760
1646.00000   -0.09251
1646.50000   -0.07706
1647.00000   -0.06166
1647.50000   -0.04679
1648.00000   -0.03288
1648.50000   -0.02038
1649.00000   -0.00967
1649.50000   -0.00113
1650.00000    0.00495
1650.50000    0.00833
1651.00000    0.00887
1651.50000    0.00651
1652.00000    0.00127
1652.50000   -0.00670
1653.00000   -0.01716
1653.50000   -0.02978
1654.00000   -0.04415
1654.50000   -0.05977
1655.00000   -0.07607
1655.50000   -0.09246
1656.00000   -0.10832
1656.50000   -0.12299
1657.00000   -0.13589
1657.50000   -0.14642
1658.00000   -0.15409
1658.50000   -0.15845
1659.00000   -0.15916
1659.50000   -0.15600
1660.00000   -0.14885
1660.50000   -0.13771
1661.00000   -0.12272
1661.50000   -0.10409
1662.00000   -0.08219
1662.50000   -0.05743
1663.00000   -0.03034
1663.50000   -0.00147
1664.00000    0.02856
1664.50000    0.05914
1665.00000    0.08963
1665.50000    0.11942
1666.00000    0.14794
1666.50000    0.17463
1667.00000    0.19904
1667.50000    0.22073
1668.00000    0.23937
1668.50000    0.25467
1669.00000    0.26645
1669.50000    0.27456
1670.00000    0.27895
1670.50000    0.27961
1671.00000    0.27661
1671.50000    0.27004
1672.00000    0.26007
1672.50000    0.24687
1673.00000    0.23068
1673.50000    0.21174
1674.00000    0.19033
1674.50000    0.16675
1675.00000    0.14132
1675.50000    0.11436
1676.00000    0.08623
1676.50000    0.05726
1677.00000    0.02783
1677.50000   -0.00171
1678.00000   -0.03102
1678.50000   -0.05974
1679.00000   -0.08754
1679.50000   -0.11413
1680.00000   -0.13921
1680.50000   -0.16256
1681.00000   -0.18395
1681.50000   -0.20323
1682.00000   -0.22027
1682.50000   -0.23500
1683.00000   -0.24738
1683.50000   -0.25742
1684.00000   -0.26517
1684.50000   -0.27069
1685.00000   -0.27409
1685.50000   -0.27547
1686.00000   -0.27494
1686.50000   -0.27262
1687.00000   -0.26860
1687.50000   -0.26296
1688.00000   -0.25578
1688.50000   -0.24708
1689.00000   -0.23690
1689.50000   -0.22525
1690.00000   -0.21212
1690.50000   -0.19753
1691.00000   -0.18147
1691.50000   -0.16398
1692.00000   -0.14511
1692.50000   -0.12496
1693.00000   -0.10366
1693.50000   -0.08139
1694.00000   -0.05838
1694.50000   -0.03492
1695.00000   -0.01135
1695.50000    0.01198
1696.00000    0.03465
1696.50000    0.05624
1697.00000    0.07634
1697.50000    0.09452
1698.00000    0.11041
1698.50000    0.12366
1699.00000    0.13399
1699.50000    0.14116
1700.00000    0.14503
1700.50000    0.14554
1701.00000    0.14268
1701.50000    0.13656
1702.00000    0.12734
1702.50000    0.11524
1703.00000    0.10057
1703.50000    0.08365
1704.00000    0.06487
1704.50000    0.04461
1705.00000    0.02329
1705.50000    0.00133
1706.00000   -0.02085
1706.50000   -0.04287
1707.00000   -0.06434
1707.50000   -0.08488
1708.00000   -0.10417
1708.50000   -0.12189
1709.00000   -0.13775
1709.50000   -0.15147
1710.00000   -0.16283
1710.50000   -0.17159
1711.00000   -0.17758
1711.50000   -0.18062
1712.00000   -0.18058
1712.50000   -0.17736
1713.00000   -0.17089
1713.50000   -0.16115
1714.00000   -0.14815
1714.50000   -0.13195
1715.00000   -0.11267
1715.50000   -0.09049
1716.00000   -0.06560
1716.50000   -0.03829
1717.00000   -0.00888
1717.50000    0.02227
1718.00000    0.05476
1718.50000    0.08813
1719.00000    0.12190
1719.50000    0.15559
1720.00000    0.18867
1720.50000    0.22063
1721.00000    0.25094
1721.50000    0.27909
1722.00000    0.30458
1722.50000    0.32695
1723.00000    0.34576
1723.50000    0.36060
1724.00000    0.37114
1724.50000    0.37708
1725.00000    0.37821
1725.50000    0.37438
1726.00000    0.36553
1726.50000    0.35168
1727.00000    0.33296
1727.50000    0.30959
1728.00000    0.28191
1728.50000    0.25033
1729.00000    0.21540
1729.50000    0.17775
1730.00000    0.13808
1730.50000    0.09719
1731.00000    0.05591
1731.50000    0.01512
1732.00000   -0.02428
1732.50000   -0.06140
1733.00000   -0.09541
1733.50000   -0.12551
1734.00000   -0.15100
1734.50000   -0.17129
1735.00000   -0.18592
1735.50000   -0.19456
1736.00000   -0.19707
1736.50000   -0.19345
1737.00000   -0.18390
1737.50000   -0.16875
1738.00000   -0.14852
1738.50000   -0.12385
1739.00000   -0.09552
1739.50000   -0.06439
1740.00000   -0.03139
1740.50000    0.00249
1741.00000    0.03628
1741.50000    0.06900
1742.00000    0.09976
1742.50000    0.12771
1743.00000    0.15212
1743.50000    0.17239
1744.00000    0.18804
1744.50000    0.19876
1745.00000    0.20437
1745.50000    0.20486
1746.00000    0.20038
1746.50000    0.19121
1747.00000    0.17777
1747.50000    0.16058
1748.00000    0.14026
1748.50000    0.11751
1749.00000    0.09304
1749.50000    0.06762
1750.00000    0.04198
1750.50000    0.01683
1751.00000   -0.00716
1751.50000   -0.02943
1752.00000   -0.04948
1752.50000   -0.06692
1753.00000   -0.08148
1753.50000   -0.09299
1754.00000   -0.10139
1754.50000   -0.10672
1755.00000   -0.10910
1755.50000   -0.10874
1756.00000   -0.10591
1756.50000   -0.10089
1757.00000   -0.09402
1757.50000   -0.08562
1758.00000   -0.07602
1758.50000   -0.06550
1759.00000   -0.05434
1759.50000   -0.04278
1760.00000   -0.03100
1760.50000   -0.01917
1761.00000   -0.00742
1761.50000    0.00414
1762.00000    0.01541
1762.50000    0.02629
1763.00000    0.03666
1763.50000    0.04640
1764.00000    0.05534
1764.50000    0.06331
1765.00000    0.07008
1765.50000    0.07539
1766.00000    0.07900
1766.50000    0.08063
1767.00000    0.08002
1767.50000    0.07693
1768.00000    0.07118
1768.50000    0.06264
1769.00000    0.05125
1769.50000    0.03707
1770.00000    0.02022
1770.50000    0.00094
1771.00000   -0.02046
1771.50000   -0.04356
1772.00000   -0.06790
1772.50000   -0.09294
1773.00000   -0.11814
1773.50000   -0.14293
1774.00000   -0.16678
1774.50000   -0.18920
1775.00000   -0.20976
1775.50000   -0.22813
1776.00000   -0.24404
1776.50000   -0.25736
1777.00000   -0.26803
1777.50000   -0.27610
1778.00000   -0.28169
1778.50000   -0.28499
1779.00000   -0.28622
1779.50000   -0.28563
1780.00000   -0.28344
1780.50000   -0.27986
1781.00000   -0.27504
1781.50000   -0.26906
1782.00000   -0.26192
1782.50000   -0.25354
1783.00000   -0.24377
1783.50000   -0.23242
1784.00000   -0.21921
1784.50000   -0.20389
1785.00000   -0.18617
1785.50000   -0.16583
1786.00000   -0.14267
1786.50000   -0.11661
1787.00000   -0.08764
1787.50000   -0.05590
1788.00000   -0.02162
1788.50000    0.01480
1789.00000    0.05288
1789.50000    0.09199
1790.00000    0.13145
1790.50000    0.17048
1791.00000    0.20827
1791.50000    0.24403
1792.00000    0.27696
1792.50000    0.30635
1793.00000    0.33158
1793.50000    0.35210
1794.00000    0.36755
1794.50000    0.37769
1795.00000    0.38241
1795.50000    0.38179
1796.00000    0.37602
1796.50000    0.36545
1797.00000    0.35051
1797.50000    0.33173
1798.00000    0.30970
1798.50000    0.28503
1799.00000    0.25835
1799.50000    0.23028
1800.00000    0.20138
1800.50000    0.17218
1801.00000    0.14314
1801.50000    0.11464
1802.00000    0.08699
1802.50000    0.06039
1803.00000    0.03501
1803.50000    0.01091
1804.00000   -0.01189
1804.50000   -0.03345
1805.00000   -0.05385
1805.50000   -0.07320
1806.00000   -0.09166
1806.50000   -0.10937
1807.00000   -0.12649
1807.50000   -0.14318
1808.00000   -0.15956
1808.50000   -0.17576
1809.00000   -0.19189
1809.50000   -0.20800
1810.00000   -0.22415
1810.50000   -0.24034
1811.00000   -0.25657
1811.50000   -0.27277
1812.00000   -0.28887
1812.50000   -0.30475
1813.00000   -0.32025
1813.50000   -0.33518
1814.00000   -0.34934
1814.50000   -0.36248
1815.00000   -0.37433
1815.50000   -0.38461
1816.00000   -0.39300
1816.50000   -0.39921
1817.00000   -0.40292
1817.50000   -0.40382
1818.00000   -0.40165
1818.50000   -0.39615
1819.00000   -0.38709
1819.50000   -0.37432
1820.00000   -0.35772
1820.50000   -0.33726
1821.00000   -0.31295
1821.50000   -0.28491
1822.00000   -0.25333
1822.50000   -0.21847
1823.00000   -0.18068
1823.50000   -0.14039
1824.00000   -0.09809
1824.50000   -0.05435
1825.00000   -0.00976
1825.50000    0.03502
1826.00000    0.07934
1826.50000    0.12254
1827.00000    0.16397
1827.50000    0.20302
1828.00000    0.23912
1828.50000    0.27180
1829.00000    0.30063
1829.50000    0.32531
1830.00000    0.34562
1830.50000    0.36148
1831.00000    0.37288
1831.50000    0.37996
1832.00000    0.38295
1832.50000    0.38216
1833.00000    0.37803
1833.50000    0.37102
1834.00000    0.36167
1834.50000    0.35054
1835.00000    0.33823
1835.50000    0.32530
1836.00000    0.31232
1836.50000    0.29978
1837.00000    0.28815
1837.50000    0.27780
1838.00000    0.26904
1838.50000    0.26208
1839.00000    0.25706
1839.50000    0.25400
1840.00000    0.25288
1840.50000    0.25355
1841.00000    0.25583
1841.50000    0.25947
1842.00000    0.26416
1842.50000    0.26958
1843.00000    0.27536
1843.50000    0.28116
1844.00000    0.28659
1844.50000    0.29132
1845.00000    0.29500
1845.50000    0.29731
1846.00000    0.29796
1846.50000    0.29670
1847.00000    0.29328
1847.50000    0.28751
1848.00000    0.27919
1848.50000    0.26820
1849.00000    0.25441
1849.50000    0.23772
1850.00000    0.21809
1850.50000    0.19549
1851.00000    0.16992
1851.50000    0.14143
1852.00000    0.11011
1852.50000    0.07610
1853.00000    0.03958
1853.50000    0.00078
1854.00000   -0.03999
1854.50000   -0.08239
1855.00000   -0.12600
1855.50000   -0.17036
1856.00000   -0.21495
1856.50000   -0.25920
1857.00000   -0.30250
1857.50000   -0.34422
1858.00000   -0.38369
1858.50000   -0.42025
1859.00000   -0.45324
1859.50000   -0.48205
1860.00000   -0.50606
1860.50000   -0.52475
1861.00000   -0.53765
1861.50000   -0.54436
1862.00000   -0.54460
1862.50000   -0.53817
1863.00000   -0.52499
1863.50000   -0.50509
1864.00000   -0.47861
1864.50000   -0.44583
1865.00000   -0.40711
1865.50000   -0.36294
1866.00000   -0.31390
1866.50000   -0.26064
1867.00000   -0.20391
1867.50000   -0.14451
1868.00000   -0.08328
1868.50000   -0.02110
1869.00000    0.04114
1869.50000    0.10255
1870.00000    0.16227
1870.50000    0.21945
1871.00000    0.27330
1871.50000    0.32308
1872.00000    0.36812
1872.50000    0.40786
1873.00000    0.44179
1873.50000    0.46951
1874.00000    0.49075
1874.50000    0.50533
1875.00000    0.51318
1875.50000    0.51435
1876.00000    0.50901
1876.50000    0.49745
1877.00000    0.48003
1877.50000    0.45724
1878.00000    0.42966
1878.50000    0.39791
1879.00000    0.36271
1879.50000    0.32482
1880.00000    0.28501
1880.50000    0.24407
1881.00000    0.20279
1881.50000    0.16192
1882.00000    0.12218
1882.50000    0.08421
1883.00000    0.04859
1883.50000    0.01577
1884.00000   -0.01387
1884.50000   -0.04006
1885.00000   -0.06267
1885.50000   -0.08166
1886.00000   -0.09711
1886.50000   -0.10920
1887.00000   -0.11820
1887.50000   -0.12446
1888.00000   -0.12837
1888.50000   -0.13038
1889.00000   -0.13096
1889.50000   -0.13055
1890.00000   -0.12961
1890.50000   -0.12855
1891.00000   -0.12774
1891.50000   -0.12747
1892.00000   -0.12799
1892.50000   -0.12947
1893.00000   -0.13200
1893.50000   -0.13561
1894.00000   -0.14027
1894.50000   -0.14589
1895.00000   -0.15233
1895.50000   -0.15944
1896.00000   -0.16703
1896.50000   -0.17488
1897.00000   -0.18280
1897.50000   -0.19059
1898.00000   -0.19807
1898.50000   -0.20506
1899.00000   -0.21142
1899.50000   -0.21703
1900.00000   -0.22179
1900.50000   -0.22563
1901.00000   -0.22850
1901.50000   -0.23036
1902.00000   -0.23117
1902.50000   -0.23094
1903.00000   -0.22964
1903.50000   -0.22727
1904.00000   -0.22380
1904.50000   -0.21923
1905.00000   -0.21351
1905.50000   -0.20662
1906.00000   -0.19851
1906.50000   -0.18913
1907.00000   -0.17841
1907.50000   -0.16629
1908.00000   -0.15273
1908.50000   -0.13766
1909.00000   -0.12106
1909.50000   -0.10289
1910.00000   -0.08318
1910.50000   -0.06195
1911.00000   -0.03929
1911.50000   -0.01530
1912.00000    0.00986
1912.50000    0.03599
1913.00000    0.06285
1913.50000    0.09015
1914.00000    0.11760
1914.50000    0.14484
1915.00000    0.17153
1915.50000    0.19731
1916.00000    0.22182
1916.50000    0.24475
1917.00000    0.26580
1917.50000    0.28470
1918.00000    0.30128
1918.50000    0.31539
1919.00000    0.32696
1919.50000    0.33601
1920.00000    0.34261
1920.50000    0.34688
1921.00000    0.34903
1921.50000    0.34929
1922.00000    0.34793
1922.50000    0.34521
1923.00000    0.34144
1923.50000    0.33687
1924.00000    0.33174
1924.50000    0.32625
1925.00000    0.32054
1925.50000    0.31470
1926.00000    0.30877
1926.50000    0.30273
1927.00000    0.29650
1927.50000    0.28999
1928.00000    0.28307
1928.50000    0.27560
1929.00000    0.26745
1929.50000    0.25850
1930.00000    0.24870
1930.50000    0.23799
1931.00000    0.22642
1931.50000    0.21407
1932.00000    0.20107
1932.50000    0.18762
1933.00000    0.17395
1933.50000    0.16032
1934.00000    0.14701
1934.50000    0.13431
1935.00000    0.12249
1935.50000    0.11176
1936.00000    0.10231
1936.50000    0.09429
1937.00000    0.08773
1937.50000    0.08263
1938.00000    0.07890
1938.50000    0.07638
1939.00000    0.07486
1939.50000    0.07406
1940.00000    0.07368
1940.50000    0.07338
1941.00000    0.07280
1941.50000    0.07163
1942.00000    0.06954
1942.50000    0.06627
1943.00000    0.06158
1943.50000    0.05532
1944.00000    0.04737
1944.50000    0.03771
1945.00000    0.02636
1945.50000    0.01343
1946.00000   -0.00096
1946.50000   -0.01659
1947.00000   -0.03325
1947.50000   -0.05068
1948.00000   -0.06862
1948.50000   -0.08680
1949.00000   -0.10498
1949.50000   -0.12295
1950.00000   -0.14050
1950.50000   -0.15750
1951.00000   -0.17383
1951.50000   -0.18944
1952.00000   -0.20430
1952.50000   -0.21844
1953.00000   -0.23193
1953.50000   -0.24484
1954.00000   -0.25728
1954.50000   -0.26937
1955.00000   -0.28122
1955.50000   -0.29292
1956.00000   -0.30454
1956.50000   -0.31611
1957.00000   -0.32761
1957.50000   -0.33899
1958.00000   -0.35012
1958.50000   -0.36082
1959.00000   -0.37087
1959.50000   -0.37998
1960.00000   -0.38785
1960.50000   -0.39412
1961.00000   -0.39844
1961.50000   -0.40046
1962.00000   -0.39986
1962.50000   -0.39633
1963.00000   -0.38966
1963.50000   -0.37968
1964.00000   -0.36631
1964.50000   -0.34957
1965.00000   -0.32958
1965.50000   -0.30655
1966.00000   -0.28079
1966.50000   -0.25268
1967.00000   -0.22269
1967.50000   -0.19131
1968.00000   -0.15909
1968.50000   -0.12657
1969.00000   -0.09428
1969.50000   -0.06268
1970.00000   -0.03221
1970.50000   -0.00321
1971.00000    0.02408
1971.50000    0.04949
1972.00000    0.07297
1972.50000    0.09459
1973.00000    0.11448
1973.50000    0.13286
1974.00000    0.15001
1974.50000    0.16628
1975.00000    0.18201
1975.50000    0.19758
1976.00000    0.21332
1976.50000    0.22954
1977.00000    0.24651
1977.50000    0.26442
1978.00000    0.28338
1978.50000    0.30344
1979.00000    0.32457
1979.50000    0.34665
1980.00000    0.36950
1980.50000    0.39290
1981.00000    0.41656
1981.50000    0.44021
1982.00000    0.46351
1982.50000    0.48620
1983.00000    0.50798
1983.50000    0.52865
1984.00000    0.54804
1984.50000    0.56603
1985.00000    0.58259
1985.50000    0.59778
1986.00000    0.61169
1986.50000    0.62451
1987.00000    0.63649
1987.50000    0.64790
1988.00000    0.65907
1988.50000    0.67031
1989.00000    0.68195
1989.50000    0.69429
1990.00000    0.70756
1990.50000    0.72195
1991.00000    0.73757
1991.50000    0.75441
1992.00000    0.77239
1992.50000    0.79131
1993.00000    0.81086
1993.50000    0.83063
1994.00000    0.85013
1994.50000    0.86879
1995.00000    0.88600
1995.50000    0.90110
1996.00000    0.91345
1996.50000    0.92241
1997.00000    0.92741
1997.50000    0.92794
1998.00000    0.92361
1998.50000    0.91413
1999.00000    0.89936
1999.50000    0.87930
2000.00000    0.85409
2000.50000    0.82402
2001.00000    0.78952
2001.50000    0.75113
2002.00000    0.70949
2002.50000    0.66532
2003.00000    0.61939
2003.50000    0.57248
2004.00000    0.52537
2004.50000    0.47878
2005.00000    0.43339
2005.50000    0.38979
2006.00000    0.34845
2006.50000    0.30972
2007.00000    0.27386
2007.50000    0.24096
2008.00000    0.21100
2008.50000    0.18387
2009.00000    0.15934
2009.50000    0.13709
2010.00000    0.11674
2010.50000    0.09786
2011.00000    0.08002
2011.50000    0.06277
2012.00000    0.04565
2012.50000    0.02829
2013.00000    0.01031
2013.50000   -0.00855
2014.00000   -0.02852
2014.50000   -0.04972
2015.00000   -0.07221
2015.50000   -0.09593
2016.00000   -0.12074
2016.50000   -0.14642
2017.00000   -0.17265
2017.50000   -0.19903
2018.00000   -0.22511
2018.50000   -0.25038
2019.00000   -0.27426
2019.50000   -0.29619
2020.00000   -0.31556
2020.50000   -0.33179
2021.00000   -0.34435
2021.50000   -0.35274
2022.00000   -0.35657
2022.50000   -0.35550
2023.00000   -0.34936
2023.50000   -0.33808
2024.00000   -0.32174
2024.50000   -0.30057
2025.00000   -0.27493
2025.50000   -0.24536
2026.00000   -0.21251
2026.50000   -0.17714
2027.00000   -0.14012
2027.50000   -0.10236
2028.00000   -0.06483
2028.50000   -0.02846
2029.00000    0.00582
2029.50000    0.03718
2030.00000    0.06490
2030.50000    0.08837
2031.00000    0.10717
2031.50000    0.12103
2032.00000    0.12989
2032.50000    0.13387
2033.00000    0.13327
2033.50000    0.12856
2034.00000    0.12038
2034.50000    0.10944
2035.00000    0.09659
2035.50000    0.08269
2036.00000    0.06864
2036.50000    0.05530
2037.00000    0.04347
2037.50000    0.03388
2038.00000    0.02713
2038.50000    0.02367
2039.00000    0.02382
2039.50000    0.02773
2040.00000    0.03541
2040.50000    0.04668
2041.00000    0.06125
2041.50000    0.07870
2042.00000    0.09850
2042.50000    0.12006
2043.00000    0.14272
2043.50000    0.16581
2044.00000    0.18864
2044.50000    0.21057
2045.00000    0.23100
2045.50000    0.24938
2046.00000    0.26525
2046.50000    0.27824
2047.00000    0.28806
2047.50000    0.29452
2048.00000    0.29752
2048.50000    0.29704
2049.00000    0.29313
2049.50000    0.28590
2050.00000    0.27551
2050.50000    0.26217
2051.00000    0.24609
2051.50000    0.22749
2052.00000    0.20662
2052.50000    0.18369
2053.00000    0.15894
2053.50000    0.13255
2054.00000    0.10474
2054.50000    0.07569
2055.00000    0.04559
2055.50000    0.01463
2056.00000   -0.01700
2056.50000   -0.04906
2057.00000   -0.08133
2057.50000   -0.11352
2058.00000   -0.14535
2058.50000   -0.17649
2059.00000   -0.20658
2059.50000   -0.23524
2060.00000   -0.26210
2060.50000   -0.28675
2061.00000   -0.30881
2061.50000   -0.32793
2062.00000   -0.34379
2062.50000   -0.35610
2063.00000   -0.36465
2063.50000   -0.36929
2064.00000   -0.36994
2064.50000   -0.36660
2065.00000   -0.35936
2065.50000   -0.34836
2066.00000   -0.33382
2066.50000   -0.31602
2067.00000   -0.29527
2067.50000   -0.27192
2068.00000   -0.24633
2068.50000   -0.21887
2069.00000   -0.18989
2069.50000   -0.15972
2070.00000   -0.12865
2070.50000   -0.09695
2071.00000   -0.06484
2071.50000   -0.03249
2072.00000   -0.00005
2072.50000    0.03237
2073.00000    0.06468
2073.50000    0.09678
2074.00000    0.12856
2074.50000    0.15993
2075.00000    0.19072
2075.50000    0.22077
2076.00000    0.24982
2076.50000    0.27762
2077.00000    0.30382
2077.50000    0.32805
2078.00000    0.34992
2078.50000    0.36901
2079.00000    0.38487
2079.50000    0.39711
2080.00000    0.40534
2080.50000    0.40925
2081.00000    0.40859
2081.50000    0.40323
2082.00000    0.39311
2082.50000    0.37834
2083.00000    0.35914
2083.50000    0.33585
2084.00000    0.30895
2084.50000    0.27905
2085.00000    0.24684
2085.50000    0.21311
2086.00000    0.17868
2086.50000    0.14443
2087.00000    0.11122
2087.50000    0.07988
2088.00000    0.05119
2088.50000    0.02582
2089.00000    0.00436
2089.50000   -0.01278
2090.00000   -0.02530
2090.50000   -0.03306
2091.00000   -0.03611
2091.50000   -0.03461
2092.00000   -0.02892
2092.50000   -0.01949
2093.00000   -0.00692
2093.50000    0.00813
2094.00000    0.02492
2094.50000    0.04268
2095.00000    0.06062
2095.50000    0.07798
2096.00000    0.09405
2096.50000    0.10817
2097.00000    0.11978
2097.50000    0.12843
2098.00000    0.13375
2098.50000    0.13550
2099.00000    0.13357
2099.50000    0.12793
2100.00000    0.11867
2100.50000    0.10595
2101.00000    0.09002
2101.50000    0.07117
2102.00000    0.04974
2102.50000    0.02611
2103.00000    0.00063
2103.50000   -0.02630
2104.00000   -0.05433
2104.50000   -0.08311
2105.00000   -0.11233
2105.50000   -0.14169
2106.00000   -0.17093
2106.50000   -0.19983
2107.00000   -0.22816
2107.50000   -0.25577
2108.00000   -0.28249
2108.50000   -0.30819
2109.00000   -0.33276
2109.50000   -0.35611
2110.00000   -0.37817
2110.50000   -0.39889
2111.00000   -0.41823
2111.50000   -0.43618
2112.00000   -0.45274
2112.50000   -0.46794
2113.00000   -0.48179
2113.50000   -0.49433
2114.00000   -0.50557
2114.50000   -0.51554
2115.00000   -0.52421
2115.50000   -0.53155
2116.00000   -0.53745
2116.50000   -0.54179
2117.00000   -0.54436
2117.50000   -0.54491
2118.00000   -0.54314
2118.50000   -0.53869
2119.00000   -0.53117
2119.50000   -0.52018
2120.00000   -0.50530
2120.50000   -0.48615
2121.00000   -0.46239
2121.50000   -0.43378
2122.00000   -0.40014
2122.50000   -0.36144
2123.00000   -0.31779
2123.50000   -0.26944
2124.00000   -0.21682
2124.50000   -0.16052
2125.00000   -0.10125
2125.50000   -0.03990
2126.00000    0.02255
2126.50000    0.08502
2127.00000    0.14638
2127.50000    0.20551
2128.00000    0.26128
2128.50000    0.31263
2129.00000    0.35863
2129.50000    0.39844
2130.00000    0.43142
2130.50000    0.45708
2131.00000    0.47514
2131.50000    0.48551
2132.00000    0.48833
2132.50000    0.48389
2133.00000    0.47269
2133.50000    0.45535
2134.00000    0.43263
2134.50000    0.40538
2135.00000    0.37452
2135.50000    0.34099
2136.00000    0.30572
2136.50000    0.26965
2137.00000    0.23363
2137.50000    0.19845
2138.00000    0.16483
2138.50000    0.13337
2139.00000    0.10457
2139.50000    0.07885
2140.00000    0.05650
2140.50000    0.03774
2141.00000    0.02267
2141.50000    0.01136
2142.00000    0.00377
2142.50000   -0.00016
2143.00000   -0.00056
2143.50000    0.00243
2144.00000    0.00864
2144.50000    0.01787
2145.00000    0.02992
2145.50000    0.04459
2146.00000    0.06165
2146.50000    0.08089
2147.00000    0.10205
2147.50000    0.12490
2148.00000    0.14917
2148.50000    0.17456
2149.00000    0.20078
2149.50000    0.22747
2150.00000    0.25428
2150.50000    0.28079
2151.00000    0.30660
2151.50000    0.33124
2152.00000    0.35425
2152.50000    0.37517
2153.00000    0.39352
2153.50000    0.40885
2154.00000    0.42075
2154.50000    0.42885
2155.00000    0.43284
2155.50000    0.43250
2156.00000    0.42770
2156.50000    0.41841
2157.00000    0.40473
2157.50000    0.38686
2158.00000    0.36513
2158.50000    0.34001
2159.00000    0.31206
2159.50000    0.28192
2160.00000    0.25036
2160.50000    0.21818
2161.00000    0.18622
2161.50000    0.15532
2162.00000    0.12634
2162.50000    0.10006
2163.00000    0.07720
2163.50000    0.05836
2164.00000    0.04405
2164.50000    0.03463
2165.00000    0.03027
2165.50000    0.03103
2166.00000    0.03675
2166.50000    0.04713
2167.00000    0.06171
2167.50000    0.07988
2168.00000    0.10091
2168.50000    0.12397
2169.00000    0.14815
2169.50000    0.17252
2170.00000    0.19610
2170.50000    0.21798
2171.00000    0.23727
2171.50000    0.25319
2172.00000    0.26505
2172.50000    0.27231
2173.00000    0.27457
2173.50000    0.27161
2174.00000    0.26336
2174.50000    0.24993
2175.00000    0.23159
2175.50000    0.20877
2176.00000    0.18199
2176.50000    0.15192
2177.00000    0.11929
2177.50000    0.08485
2178.00000    0.04941
2178.50000    0.01373
2179.00000   -0.02146
2179.50000   -0.05551
2180.00000   -0.08788
2180.50000   -0.11812
2181.00000   -0.14593
2181.50000   -0.17112
2182.00000   -0.19365
2182.50000   -0.21358
2183.00000   -0.23111
2183.50000   -0.24649
2184.00000   -0.26007
2184.50000   -0.27223
2185.00000   -0.28338
2185.50000   -0.29392
2186.00000   -0.30422
2186.50000   -0.31459
2187.00000   -0.32530
2187.50000   -0.33651
2188.00000   -0.34833
2188.50000   -0.36076
2189.00000   -0.37370
2189.50000   -0.38700
2190.00000   -0.40041
2190.50000   -0.41363
2191.00000   -0.42631
2191.50000   -0.43807
2192.00000   -0.44853
2192.50000   -0.45726
2193.00000   -0.46388
2193.50000   -0.46800
2194.00000   -0.46929
2194.50000   -0.46740
2195.00000   -0.46207
2195.50000   -0.45303
2196.00000   -0.44009
2196.50000   -0.42307
2197.00000   -0.40184
2197.50000   -0.37631
2198.00000   -0.34643
2198.50000   -0.31218
2199.00000   -0.27361
2199.50000   -0.23080
2200.00000   -0.18387
2200.50000   -0.13305
2201.00000   -0.07857
2201.50000   -0.02078
2202.00000    0.03991
2202.50000    0.10303
2203.00000    0.16801
2203.50000    0.23422
2204.00000    0.30096
2204.50000    0.36746
2205.00000    0.43290
2205.50000    0.49642
2206.00000    0.55716
2206.50000    0.61423
2207.00000    0.66678
2207.50000    0.71399
2208.00000    0.75511
2208.50000    0.78948
2209.00000    0.81652
2209.50000    0.83578
2210.00000    0.84696
2210.50000    0.84987
2211.00000    0.84452
2211.50000    0.83102
2212.00000    0.80969
2212.50000    0.78095
2213.00000    0.74537
2213.50000    0.70367
2214.00000    0.65663
2214.50000    0.60515
2215.00000    0.55017
2215.50000    0.49266
2216.00000    0.43361
2216.50000    0.37399
2217.00000    0.31472
2217.50000    0.25666
2218.00000    0.20058
2218.50000    0.14714
2219.00000    0.09688
2219.50000    0.05024
2220.00000    0.00750
2220.50000   -0.03117
2221.00000   -0.06570
2221.50000   -0.09615
2222.00000   -0.12264
2222.50000   -0.14538
2223.00000   -0.16460
2223.50000   -0.18057
2224.00000   -0.19355
2224.50000   -0.20377
2225.00000   -0.21142
2225.50000   -0.21663
2226.00000   -0.21948
2226.50000   -0.21997
2227.00000   -0.21803
2227.50000   -0.21353
2228.00000   -0.20630
2228.50000   -0.19611
2229.00000   -0.18276
2229.50000   -0.16602
2230.00000   -0.14571
2230.50000   -0.12169
2231.00000   -0.09389
2231.50000   -0.06234
2232.00000   -0.02716
2232.50000    0.01145
2233.00000    0.05315
2233.50000    0.09752
2234.00000    0.14405
2234.50000    0.19213
2235.00000    0.24113
2235.50000    0.29033
2236.00000    0.33903
2236.50000    0.38651
2237.00000    0.43207
2237.50000    0.47507
2238.00000    0.51489
2238.50000    0.55102
2239.00000    0.58300
2239.50000    0.61047
2240.00000    0.63315
2240.50000    0.65084
2241.00000    0.66344
2241.50000    0.67092
2242.00000    0.67333
2242.50000    0.67080
2243.00000    0.66350
2243.50000    0.65169
2244.00000    0.63564
2244.50000    0.61572
2245.00000    0.59231
2245.50000    0.56584
2246.00000    0.53678
2246.50000    0.50563
2247.00000    0.47290
2247.50000    0.43914
2248.00000    0.40488
2248.50000    0.37068
2249.00000    0.33706
2249.50000    0.30452
2250.00000    0.27352
2250.50000    0.24448
2251.00000    0.21772
2251.50000    0.19353
2252.00000    0.17208
2252.50000    0.15346
2253.00000    0.13769
2253.50000    0.12466
2254.00000    0.11421
2254.50000    0.10610
2255.00000    0.09999
2255.50000    0.09554
2256.00000    0.09234
2256.50000    0.08997
2257.00000    0.08803
2257.50000    0.08611
2258.00000    0.08386
2258.50000    0.08098
2259.00000    0.07722
2259.50000    0.07240
2260.00000    0.06642
2260.50000    0.05926
2261.00000    0.05097
2261.50000    0.04166
2262.00000    0.03152
2262.50000    0.02076
2263.00000    0.00964
2263.50000   -0.00157
2264.00000   -0.01258
2264.50000   -0.02313
2265.00000   -0.03299
2265.50000   -0.04195
2266.00000   -0.04986
2266.50000   -0.05664
2267.00000   -0.06224
2267.50000   -0.06671
2268.00000   -0.07014
2268.50000   -0.07268
2269.00000   -0.07453
2269.50000   -0.07592
2270.00000   -0.07709
2270.50000   -0.07830
2271.00000   -0.07978
2271.50000   -0.08171
2272.00000   -0.08425
2272.50000   -0.08746
2273.00000   -0.09134
2273.50000   -0.09579
2274.00000   -0.10062
2274.50000   -0.10555
2275.00000   -0.11022
2275.50000   -0.11419
2276.00000   -0.11699
2276.50000   -0.11811
2277.00000   -0.11705
2277.50000   -0.11333
2278.00000   -0.10655
2278.50000   -0.09638
2279.00000   -0.08263
2279.50000   -0.06523
2280.00000   -0.04427
2280.50000   -0.02000
2281.00000    0.00716
2281.50000    0.03665
2282.00000    0.06775
2282.50000    0.09964
2283.00000    0.13140
2283.50000    0.16209
2284.00000    0.19071
2284.50000    0.21633
2285.00000    0.23806
2285.50000    0.25513
2286.00000    0.26690
2286.50000    0.27288
2287.00000    0.27276
2287.50000    0.26645
2288.00000    0.25402
2288.50000    0.23573
2289.00000    0.21204
2289.50000    0.18355
2290.00000    0.15097
2290.50000    0.11514
2291.00000    0.07696
2291.50000    0.03737
2292.00000   -0.00269
2292.50000   -0.04231
2293.00000   -0.08062
2293.50000   -0.11680
2294.00000   -0.15016
2294.50000   -0.18008
2295.00000   -0.20608
2295.50000   -0.22776
2296.00000   -0.24488
2296.50000   -0.25729
2297.00000   -0.26497
2297.50000   -0.26800
2298.00000   -0.26655
2298.50000   -0.26091
2299.00000   -0.25142
2299.50000   -0.23853
2300.00000   -0.22273
2300.50000   -0.20456
2301.00000   -0.18461
2301.50000   -0.16349
2302.00000   -0.14182
2302.50000   -0.12021
2303.00000   -0.09927
2303.50000   -0.07956
2304.00000   -0.06158
2304.50000   -0.04578
2305.00000   -0.03253
2305.50000   -0.02211
2306.00000   -0.01468
2306.50000   -0.01032
2307.00000   -0.00901
2307.50000   -0.01060
2308.00000   -0.01486
2308.50000   -0.02147
2309.00000   -0.03004
2309.50000   -0.04011
2310.00000   -0.05119
2310.50000   -0.06276
2311.00000   -0.07429
2311.50000   -0.08527
2312.00000   -0.09522
2312.50000   -0.10370
2313.00000   -0.11033
2313.50000   -0.11481
2314.00000   -0.11690
2314.50000   -0.11644
2315.00000   -0.11335
2315.50000   -0.10763
2316.00000   -0.09937
2316.50000   -0.08871
2317.00000   -0.07586
2317.50000   -0.06111
2318.00000   -0.04477
2318.50000   -0.02720
2319.00000   -0.00881
2319.50000    0.01001
2320.00000    0.02881
2320.50000    0.04717
2321.00000    0.06467
2321.50000    0.08092
2322.00000    0.09555
2322.50000    0.10824
2323.00000    0.11871
2323.50000    0.12675
2324.00000    0.13223
2324.50000    0.13505
2325.00000    0.13524
2325.50000    0.13287
2326.00000    0.12810
2326.50000    0.12115
2327.00000    0.11231
2327.50000    0.10193
2328.00000    0.09039
2328.50000    0.07810
2329.00000    0.06549
2329.50000    0.05300
2330.00000    0.04104
2330.50000    0.03000
2331.00000    0.02023
2331.50000    0.01204
2332.00000    0.00569
2332.50000    0.00139
2333.00000   -0.00073
2333.50000   -0.00057
2334.00000    0.00189
2334.50000    0.00662
2335.00000    0.01355
2335.50000    0.02255
2336.00000    0.03346
2336.50000    0.04608
2337.00000    0.06014
2337.50000    0.07539
2338.00000    0.09151
2338.50000    0.10817
2339.00000    0.12500
2339.50000    0.14164
2340.00000    0.15769
2340.50000    0.17275
2341.00000    0.18644
2341.50000    0.19838
2342.00000    0.20822
2342.50000    0.21564
2343.00000    0.22037
2343.50000    0.22223
2344.00000    0.22106
2344.50000    0.21683
2345.00000    0.20957
2345.50000    0.19937
2346.00000    0.18645
2346.50000    0.17107
2347.00000    0.15356
2347.50000    0.13431
2348.00000    0.11374
2348.50000    0.09228
2349.00000    0.07035
2349.50000    0.04837
2350.00000    0.02672
2350.50000    0.00571
2351.00000   -0.01439
2351.50000   -0.03340
2352.00000   -0.05118
2352.50000   -0.06769
2353.00000   -0.08293
2353.50000   -0.09697
2354.00000   -0.10989
2354.50000   -0.12185
2355.00000   -0.13296
2355.50000   -0.14337
2356.00000   -0.15321
2356.50000   -0.16256
2357.00000   -0.17148
2357.50000   -0.17998
2358.00000   -0.18802
2358.50000   -0.19551
2359.00000   -0.20233
2359.50000   -0.20828
2360.00000   -0.21317
2360.50000   -0.21676
2361.00000   -0.21881
2361.50000   -0.21907
2362.00000   -0.21731
2362.50000   -0.21334
2363.00000   -0.20698
2363.50000   -0.19813
2364.00000   -0.18675
2364.50000   -0.17284
2365.00000   -0.15653
2365.50000   -0.13800
2366.00000   -0.11754
2366.50000   -0.09550
2367.00000   -0.07233
2367.50000   -0.04856
2368.00000   -0.02474
2368.50000   -0.00152
2369.00000    0.02048
2369.50000    0.04061
2370.00000    0.05825
2370.50000    0.07286
2371.00000    0.08393
2371.50000    0.09109
2372.00000    0.09408
2372.50000    0.09277
2373.00000    0.08720
2373.50000    0.07756
2374.00000    0.06420
2374.50000    0.04760
2375.00000    0.02838
2375.50000    0.00727
2376.00000   -0.01494
2376.50000   -0.03738
2377.00000   -0.05920
2377.50000   -0.07956
2378.00000   -0.09766
2378.50000   -0.11281
2379.00000   -0.12440
2379.50000   -0.13196
2380.00000   -0.13517
2380.50000   -0.13383
2381.00000   -0.12789
2381.50000   -0.11744
2382.00000   -0.10269
2382.50000   -0.08395
2383.00000   -0.06161
2383.50000   -0.03613
2384.00000   -0.00804
2384.50000    0.02212
2385.00000    0.05377
2385.50000    0.08634
2386.00000    0.11923
2386.50000    0.15186
2387.00000    0.18363
2387.50000    0.21395
2388.00000    0.24220
2388.50000    0.26780
2389.00000    0.29013
2389.50000    0.30861
2390.00000    0.32264
2390.50000    0.33170
2391.00000    0.33528
2391.50000    0.33296
2392.00000    0.32444
2392.50000    0.30951
2393.00000    0.28813
2393.50000    0.26042
2394.00000    0.22670
2394.50000    0.18745
2395.00000    0.14339
2395.50000    0.09538
2396.00000    0.04448
2396.50000   -0.00813
2397.00000   -0.06115
2397.50000   -0.11324
2398.00000   -0.16302
2398.50000   -0.20919
2399.00000   -0.25049
2399.50000   -0.28582
2400.00000   -0.31428
2400.50000   -0.33514
2401.00000   -0.34794
2401.50000   -0.35249
2402.00000   -0.34883
2402.50000   -0.33728
2403.00000   -0.31839
2403.50000   -0.29292
2404.00000   -0.26180
2404.50000   -0.22610
2405.00000   -0.18697
2405.50000   -0.14562
2406.00000   -0.10324
2406.50000   -0.06096
2407.00000   -0.01985
2407.50000    0.01915
2408.00000    0.05525
2408.50000    0.08780
2409.00000    0.11633
2409.50000    0.14053
2410.00000    0.16025
2410.50000    0.17546
2411.00000    0.18631
2411.50000    0.19301
2412.00000    0.19588
2412.50000    0.19529
2413.00000    0.19166
2413.50000    0.18543
2414.00000    0.17703
2414.50000    0.16689
2415.00000    0.15541
2415.50000    0.14295
2416.00000    0.12987
2416.50000    0.11643
2417.00000    0.10290
2417.50000    0.08948
2418.00000    0.07635
2418.50000    0.06362
2419.00000    0.05140
2419.50000    0.03973
2420.00000    0.02864
2420.50000    0.01809
2421.00000    0.00805
2421.50000   -0.00158
2422.00000   -0.01093
2422.50000   -0.02013
2423.00000   -0.02938
2423.50000   -0.03886
2424.00000   -0.04879
2424.50000   -0.05938
2425.00000   -0.07081
2425.50000   -0.08328
2426.00000   -0.09690
2426.50000   -0.11177
2427.00000   -0.12788
2427.50000   -0.14519
2428.00000   -0.16352
2428.50000   -0.18264
2429.00000   -0.20220
2429.50000   -0.22177
2430.00000   -0.24083
2430.50000   -0.25879
2431.00000   -0.27504
2431.50000   -0.28890
2432.00000   -0.29970
2432.50000   -0.30683
2433.00000   -0.30969
2433.50000   -0.30779
2434.00000   -0.30073
2434.50000   -0.28825
2435.00000   -0.27024
2435.50000   -0.24676
2436.00000   -0.21800
2436.50000   -0.18435
2437.00000   -0.14634
2437.50000   -0.10464
2438.00000   -0.06005
2438.50000   -0.01345
2439.00000    0.03420
2439.50000    0.08190
2440.00000    0.12866
2440.50000    0.17351
2441.00000    0.21554
2441.50000    0.25393
2442.00000    0.28796
2442.50000    0.31705
2443.00000    0.34075
2443.50000    0.35877
2444.00000    0.37097
2444.50000    0.37736
2445.00000    0.37808
2445.50000    0.37342
2446.00000    0.36376
2446.50000    0.34959
2447.00000    0.33147
2447.50000    0.30998
2448.00000    0.28575
2448.50000    0.25941
2449.00000    0.23155
2449.50000    0.20275
2450.00000    0.17350
2450.50000    0.14425
2451.00000    0.11536
2451.50000    0.08712
2452.00000    0.05971
2452.50000    0.03328
2453.00000    0.00789
2453.50000   -0.01647
2454.00000   -0.03982
2454.50000   -0.06221
2455.00000   -0.08372
2455.50000   -0.10439
2456.00000   -0.12427
2456.50000   -0.14333
2457.00000   -0.16154
2457.50000   -0.17878
2458.00000   -0.19491
2458.50000   -0.20972
2459.00000   -0.22296
2459.50000   -0.23436
2460.00000   -0.24364
2460.50000   -0.25051
2461.00000   -0.25470
2461.50000   -0.25598
2462.00000   -0.25416
2462.50000   -0.24912
2463.00000   -0.24081
2463.50000   -0.22924
2464.00000   -0.21449
2464.50000   -0.19672
2465.00000   -0.17612
2465.50000   -0.15294
2466.00000   -0.12743
2466.50000   -0.09985
2467.00000   -0.07047
2467.50000   -0.03950
2468.00000   -0.00713
2468.50000    0.02651
2469.00000    0.06134
2469.50000    0.09731
2470.00000    0.13445
2470.50000    0.17280
2471.00000    0.21242
2471.50000    0.25338
2472.00000    0.29571
2472.50000    0.33944
2473.00000    0.38451
2473.50000    0.43082
2474.00000    0.47817
2474.50000    0.52629
2475.00000    0.57483
2475.50000    0.62335
2476.00000    0.67133
2476.50000    0.71821
2477.00000    0.76338
2477.50000    0.80621
2478.00000    0.84604
2478.50000    0.88225
2479.00000    0.91424
2479.50000    0.94144
2480.00000    0.96334
2480.50000    0.97952
2481.00000    0.98960
2481.50000    0.99329
2482.00000    0.99039
2482.50000    0.98079
2483.00000    0.96443
2483.50000    0.94136
2484.00000    0.91172
2484.50000    0.87570
2485.00000    0.83362
2485.50000    0.78585
2486.00000    0.73286
2486.50000    0.67521
2487.00000    0.61353
2487.50000    0.54854
2488.00000    0.48104
2488.50000    0.41188
2489.00000    0.34198
2489.50000    0.27228
2490.00000    0.20376
2490.50000    0.13739
2491.00000    0.07411
2491.50000    0.01482
2492.00000   -0.03965
2492.50000   -0.08857
2493.00000   -0.13131
2493.50000   -0.16738
2494.00000   -0.19644
2494.50000   -0.21829
2495.00000   -0.23290
2495.50000   -0.24037
2496.00000   -0.24098
2496.50000   -0.23512
2497.00000   -0.22332
2497.50000   -0.20621
2498.00000   -0.18450
2498.50000   -0.15894
2499.00000   -0.13033
2499.50000   -0.09950
2500.00000   -0.06723
2500.50000   -0.03429
2501.00000   -0.00141
2501.50000    0.03076
2502.00000    0.06164
2502.50000    0.09074
2503.00000    0.11766
2503.50000    0.14208
2504.00000    0.16378
2504.50000    0.18262
2505.00000    0.19855
2505.50000    0.21158
2506.00000    0.22179
2506.50000    0.22930
2507.00000    0.23426
2507.50000    0.23687
2508.00000    0.23732
2508.50000    0.23580
2509.00000    0.23248
2509.50000    0.22754
2510.00000    0.22110
2510.50000    0.21326
2511.00000    0.20410
2511.50000    0.19365
2512.00000    0.18191
2512.50000    0.16886
2513.00000    0.15446
2513.50000    0.13865
2514.00000    0.12140
2514.50000    0.10264
2515.00000    0.08236
2515.50000    0.06055
2516.00000    0.03725
2516.50000    0.01251
2517.00000   -0.01355
2517.50000   -0.04077
2518.00000   -0.06895
2518.50000   -0.09785
2519.00000   -0.12718
2519.50000   -0.15662
2520.00000   -0.18583
2520.50000   -0.21443
2521.00000   -0.24205
2521.50000   -0.26828
2522.00000   -0.29273
2522.50000   -0.31504
2523.00000   -0.33484
2523.50000   -0.35178
2524.00000   -0.36558
2524.50000   -0.37598
2525.00000   -0.38276
2525.50000   -0.38576
2526.00000   -0.38490
2526.50000   -0.38012
2527.00000   -0.37147
2527.50000   -0.35903
2528.00000   -0.34297
2528.50000   -0.32352
2529.00000   -0.30095
2529.50000   -0.27561
2530.00000   -0.24787
2530.50000   -0.21814
2531.00000   -0.18687
2531.50000   -0.15449
2532.00000   -0.12146
2532.50000   -0.08820
2533.00000   -0.05513
2533.50000   -0.02260
2534.00000    0.00904
2534.50000    0.03953
2535.00000    0.06864
2535.50000    0.09621
2536.00000    0.12211
2536.50000    0.14629
2537.00000    0.16872
2537.50000    0.18943
2538.00000    0.20847
2538.50000    0.22589
2539.00000    0.24178
2539.50000    0.25623
2540.00000    0.26932
2540.50000    0.28110
2541.00000    0.29162
2541.50000    0.30092
2542.00000    0.30898
2542.50000    0.31580
2543.00000    0.32130
2543.50000    0.32543
2544.00000    0.32808
2544.50000    0.32913
2545.00000    0.32848
2545.50000    0.32598
2546.00000    0.32151
2546.50000    0.31495
2547.00000    0.30621
2547.50000    0.29521
2548.00000    0.28191
2548.50000    0.26630
2549.00000    0.24843
2549.50000    0.22839
2550.00000    0.20632
2550.50000    0.18243
2551.00000    0.15694
2551.50000    0.13016
2552.00000    0.10241
2552.50000    0.07403
2553.00000    0.04541
2553.50000    0.01693
2554.00000   -0.01106
2554.50000   -0.03818
2555.00000   -0.06412
2555.50000   -0.08860
2556.00000   -0.11136
2556.50000   -0.13222
2557.00000   -0.15105
2557.50000   -0.16774
2558.00000   -0.18225
2558.50000   -0.19457
2559.00000   -0.20472
2559.50000   -0.21272
2560.00000   -0.21862
2560.50000   -0.22245
2561.00000   -0.22423
2561.50000   -0.22396
2562.00000   -0.22163
2562.50000   -0.21719
2563.00000   -0.21058
2563.50000   -0.20171
2564.00000   -0.19049
2564.50000   -0.17683
2565.00000   -0.16063
2565.50000   -0.14184
2566.00000   -0.12040
2566.50000   -0.09630
2567.00000   -0.06957
2567.50000   -0.04029
2568.00000   -0.00856
2568.50000    0.02545
2569.00000    0.06154
2569.50000    0.09948
2570.00000    0.13900
2570.50000    0.17982
2571.00000    0.22164
2571.50000    0.26413
2572.00000    0.30699
2572.50000    0.34990
2573.00000    0.39254
2573.50000    0.43460
2574.00000    0.47578
2574.50000    0.51578
2575.00000    0.55433
2575.50000    0.59115
2576.00000    0.62599
2576.50000    0.65860
2577.00000    0.68878
2577.50000    0.71633
2578.00000    0.74110
2578.50000    0.76297
2579.00000    0.78187
2579.50000    0.79778
2580.00000    0.81072
2580.50000    0.82078
2581.00000    0.82808
2581.50000    0.83282
2582.00000    0.83521
2582.50000    0.83549
2583.00000    0.83392
2583.50000    0.83077
2584.00000    0.82628
2584.50000    0.82066
2585.00000    0.81409
2585.50000    0.80667
2586.00000    0.79846
2586.50000    0.78942
2587.00000    0.77945
2587.50000    0.76838
2588.00000    0.75598
2588.50000    0.74197
2589.00000    0.72602
2589.50000    0.70780
2590.00000    0.68700
2590.50000    0.66330
2591.00000    0.63647
2591.50000    0.60629
2592.00000    0.57267
2592.50000    0.53558
2593.00000    0.49509
2593.50000    0.45137
2594.00000    0.40468
2594.50000    0.35534
2595.00000    0.30377
2595.50000    0.25042
2596.00000    0.19578
2596.50000    0.14034
2597.00000    0.08461
2597.50000    0.02907
2598.00000   -0.02585
2598.50000   -0.07973
2599.00000   -0.13221
2599.50000   -0.18300
2600.00000   -0.23181
2600.50000   -0.27842
2601.00000   -0.32262
2601.50000   -0.36419
2602.00000   -0.40295
2602.50000   -0.43868
2603.00000   -0.47114
2603.50000   -0.50006
2604.00000   -0.52514
2604.50000   -0.54607
2605.00000   -0.56250
2605.50000   -0.57409
2606.00000   -0.58052
2606.50000   -0.58152
2607.00000   -0.57686
2607.50000   -0.56641
2608.00000   -0.55015
2608.50000   -0.52820
2609.00000   -0.50080
2609.50000   -0.46835
2610.00000   -0.43139
2610.50000   -0.39059
2611.00000   -0.34676
2611.50000   -0.30077
2612.00000   -0.25358
2612.50000   -0.20615
2613.00000   -0.15945
2613.50000   -0.11437
2614.00000   -0.07174
2614.50000   -0.03224
2615.00000    0.00358
2615.50000    0.03537
2616.00000    0.06292
2616.50000    0.08623
2617.00000    0.10546
2617.50000    0.12093
2618.00000    0.13309
2618.50000    0.14248
2619.00000    0.14972
2619.50000    0.15544
2620.00000    0.16026
2620.50000    0.16476
2621.00000    0.16943
2621.50000    0.17468
2622.00000    0.18078
2622.50000    0.18787
2623.00000    0.19598
2623.50000    0.20500
2624.00000    0.21471
2624.50000    0.22482
2625.00000    0.23495
2625.50000    0.24469
2626.00000    0.25360
2626.50000    0.26128
2627.00000    0.26732
2627.50000    0.27142
2628.00000    0.27328
2628.50000    0.27274
2629.00000    0.26969
2629.50000    0.26409
2630.00000    0.25601
2630.50000    0.24555
2631.00000    0.23290
2631.50000    0.21827
2632.00000    0.20191
2632.50000    0.18409
2633.00000    0.16508
2633.50000    0.14517
2634.00000    0.12463
2634.50000    0.10372
2635.00000    0.08271
2635.50000    0.06185
2636.00000    0.04140
2636.50000    0.02161
2637.00000    0.00275
2637.50000   -0.01490
2638.00000   -0.03105
2638.50000   -0.04538
2639.00000   -0.05757
2639.50000   -0.06730
2640.00000   -0.07422
2640.50000   -0.07801
2641.00000   -0.07835
2641.50000   -0.07495
2642.00000   -0.06757
2642.50000   -0.05600
2643.00000   -0.04009
2643.50000   -0.01973
2644.00000    0.00510
2644.50000    0.03438
2645.00000    0.06801
2645.50000    0.10588
2646.00000    0.14781
2646.50000    0.19360
2647.00000    0.24303
2647.50000    0.29587
2648.00000    0.35192
2648.50000    0.41098
2649.00000    0.47291
2649.50000    0.53758
2650.00000    0.60492
2650.50000    0.67492
2651.00000    0.74762
2651.50000    0.82310
2652.00000    0.90148
2652.50000    0.98295
2653.00000    1.06769
2653.50000    1.15594
2654.00000    1.24792
2654.50000    1.34388
2655.00000    1.44404
2655.50000    1.54861
2656.00000    1.65779
2656.50000    1.77172
2657.00000    1.89053
2657.50000    2.01430
2658.00000    2.14306
2658.50000    2.27680
2659.00000    2.41550
2659.50000    2.55905
2660.00000    2.70737
2660.50000    2.86030
2661.00000    3.01770
2661.50000    3.17941
2662.00000    3.34525
2662.50000    3.51506
2663.00000    3.68867
2663.50000    3.86592
2664.00000    4.04667
2664.50000    4.23077
2665.00000    4.41808
2665.50000    4.60847
2666.00000    4.80179
2666.50000    4.99785
2667.00000    5.19647
2667.50000    5.39742
2668.00000    5.60042
2668.50000    5.80514
2669.00000    6.01120
2669.50000    6.21817
2670.00000    6.42556
2670.50000    6.63283
2671.00000    6.83939
2671.50000    7.04463
2672.00000    7.24792
2672.50000    7.44860
2673.00000    7.64603
2673.50000    7.83956
2674.00000    8.02857
2674.50000    8.21246
2675.00000    8.39064
2675.50000    8.56257
2676.00000    8.72768
2676.50000    8.88543
2677.00000    9.03529
2677.50000    9.17670
2678.00000    9.30908
2678.50000    9.43184
2679.00000    9.54435
2679.50000    9.64596
2680.00000    9.73603
2680.50000    9.81389
2681.00000    9.87891
2681.50000    9.93050
2682.00000    9.96814
2682.50000    9.99141
2683.00000   10.00000
2683.50000    9.99375
2684.00000    9.97264
2684.50000    9.93686
2685.00000    9.88672
2685.50000    9.82272
2686.00000    9.74550
2686.50000    9.65584
2687.00000    9.55459
2687.50000    9.44271
2688.00000    9.32113
2688.50000    9.19083
2689.00000    9.05270
2689.50000    8.90759
2690.00000    8.75625
2690.50000    8.59933
2691.00000    8.43737
2691.50000    8.27079
2692.00000    8.09993
2692.50000    7.92504
2693.00000    7.74634
2693.50000    7.56401
2694.00000    7.37824
2694.50000    7.18925
2695.00000    6.99734
2695.50000    6.80285
2696.00000    6.60623
2696.50000    6.40803
2697.00000    6.20885
2697.50000    6.00941
2698.00000    5.81046
2698.50000    5.61280
2699.00000    5.41722
2699.50000    5.22451
2700.00000    5.03541
2700.50000    4.85057
2701.00000    4.67058
2701.50000    4.49590
2702.00000    4.32689
2702.50000    4.16378
2703.00000    4.00668
2703.50000    3.85562
2704.00000    3.71052
2704.50000    3.57123
2705.00000    3.43755
2705.50000    3.30923
2706.00000    3.18604
2706.50000    3.06771
2707.00000    2.95403
2707.50000    2.84480
2708.00000    2.73988
2708.50000    2.63915
2709.00000    2.54258
2709.50000    2.45017
2710.00000    2.36194
2710.50000    2.27800
2711.00000    2.19846
2711.50000    2.12344
2712.00000    2.05311
2712.50000    1.98761
2713.00000    1.92706
2713.50000    1.87158
2714.00000    1.82123
2714.50000    1.77603
2715.00000    1.73592
2715.50000    1.70079
2716.00000    1.67042
2716.50000    1.64454
2717.00000    1.62276
2717.50000    1.60462
2718.00000    1.58958
2718.50000    1.57702
2719.00000    1.56627
2719.50000    1.55659
2720.00000    1.54727
2720.50000    1.53755
2721.00000    1.52672
2721.50000    1.51410
2722.00000    1.49908
2722.50000    1.48115
2723.00000    1.45988
2723.50000    1.43496
2724.00000    1.40620
2724.50000    1.37351
2725.00000    1.33695
2725.50000    1.29664
2726.00000    1.25284
2726.50000    1.20587
2727.00000    1.15610
2727.50000    1.10398
2728.00000    1.04997
2728.50000    0.99455
2729.00000    0.93822
2729.50000    0.88148
2730.00000    0.82482
2730.50000    0.76870
2731.00000    0.71359
2731.50000    0.65993
2732.00000    0.60814
2732.50000    0.55861
2733.00000    0.51170
2733.50000    0.46774
2734.00000    0.42700
2734.50000    0.38970
2735.00000    0.35598
2735.50000    0.32592
2736.00000    0.29948
2736.50000    0.27656
2737.00000    0.25692
2737.50000    0.24027
2738.00000    0.22619
2738.50000    0.21422
2739.00000    0.20384
2739.50000    0.19449
2740.00000    0.18559
2740.50000    0.17662
2741.00000    0.16706
2741.50000    0.15650
2742.00000    0.14457
2742.50000    0.13105
2743.00000    0.11577
2743.50000    0.09872
2744.00000    0.07993
2744.50000    0.05955
2745.00000    0.03779
2745.50000    0.01488
2746.00000   -0.00893
2746.50000   -0.03336
2747.00000   -0.05819
2747.50000   -0.08323
2748.00000   -0.10831
2748.50000   -0.13334
2749.00000   -0.15825
2749.50000   -0.18301
2750.00000   -0.20761
2750.50000   -0.23206
2751.00000   -0.25633
2751.50000   -0.28037
2752.00000   -0.30409
2752.50000   -0.32734
2753.00000   -0.34991
2753.50000   -0.37153
2754.00000   -0.39189
2754.50000   -0.41062
2755.00000   -0.42735
2755.50000   -0.44170
2756.00000   -0.45330
2756.50000   -0.46181
2757.00000   -0.46697
2757.50000   -0.46855
2758.00000   -0.46643
2758.50000   -0.46053
2759.00000   -0.45089
2759.50000   -0.43757
2760.00000   -0.42075
2760.50000   -0.40060
2761.00000   -0.37737
2761.50000   -0.35134
2762.00000   -0.32277
2762.50000   -0.29197
2763.00000   -0.25923
2763.50000   -0.22488
2764.00000   -0.18924
2764.50000   -0.15263
2765.00000   -0.11540
2765.50000   -0.07793
2766.00000   -0.04059
2766.50000   -0.00379
2767.00000    0.03207
2767.50000    0.06659
2768.00000    0.09938
2768.50000    0.13009
2769.00000    0.15841
2769.50000    0.18411
2770.00000    0.20704
2770.50000    0.22715
2771.00000    0.24447
2771.50000    0.25916
2772.00000    0.27145
2772.50000    0.28168
2773.00000    0.29021
2773.50000    0.29748
2774.00000    0.30391
2774.50000    0.30990
2775.00000    0.31581
2775.50000    0.32192
2776.00000    0.32840
2776.50000    0.33531
2777.00000    0.34260
2777.50000    0.35007
2778.00000    0.35743
2778.50000    0.36430
2779.00000    0.37021
2779.50000    0.37465
2780.00000    0.37710
2780.50000    0.37705
2781.00000    0.37405
2781.50000    0.36771
2782.00000    0.35773
2782.50000    0.34392
2783.00000    0.32622
2783.50000    0.30466
2784.00000    0.27942
2784.50000    0.25073
2785.00000    0.21896
2785.50000    0.18452
2786.00000    0.14788
2786.50000    0.10955
2787.00000    0.07004
2787.50000    0.02988
2788.00000   -0.01041
2788.50000   -0.05032
2789.00000   -0.08940
2789.50000   -0.12717
2790.00000   -0.16323
2790.50000   -0.19718
2791.00000   -0.22866
2791.50000   -0.25734
2792.00000   -0.28291
2792.50000   -0.30510
2793.00000   -0.32366
2793.50000   -0.33841
2794.00000   -0.34918
2794.50000   -0.35585
2795.00000   -0.35836
2795.50000   -0.35669
2796.00000   -0.35089
2796.50000   -0.34108
2797.00000   -0.32742
2797.50000   -0.31015
2798.00000   -0.28954
2798.50000   -0.26597
2799.00000   -0.23981
2799.50000   -0.21151
2800.00000   -0.18156
2800.50000   -0.15044
2801.00000   -0.11870
2801.50000   -0.08684
2802.00000   -0.05542
2802.50000   -0.02493
2803.00000    0.00411
2803.50000    0.03124
2804.00000    0.05604
2804.50000    0.07811
2805.00000    0.09712
2805.50000    0.11280
2806.00000    0.12495
2806.50000    0.13343
2807.00000    0.13818
2807.50000    0.13922
2808.00000    0.13663
2808.50000    0.13059
2809.00000    0.12133
2809.50000    0.10917
2810.00000    0.09447
2810.50000    0.07766
2811.00000    0.05919
2811.50000    0.03955
2812.00000    0.01925
2812.50000   -0.00120
2813.00000   -0.02131
2813.50000   -0.04061
2814.00000   -0.05867
2814.50000   -0.07510
2815.00000   -0.08957
2815.50000   -0.10182
2816.00000   -0.11163
2816.50000   -0.11889
2817.00000   -0.12351
2817.50000   -0.12547
2818.00000   -0.12482
2818.50000   -0.12163
2819.00000   -0.11602
2819.50000   -0.10812
2820.00000   -0.09809
2820.50000   -0.08609
2821.00000   -0.07228
2821.50000   -0.05681
2822.00000   -0.03985
2822.50000   -0.02155
2823.00000   -0.00204
2823.50000    0.01852
2824.00000    0.03998
2824.50000    0.06218
2825.00000    0.08493
2825.50000    0.10803
2826.00000    0.13125
2826.50000    0.15435
2827.00000    0.17704
2827.50000    0.19903
2828.00000    0.22000
2828.50000    0.23963
2829.00000    0.25761
2829.50000    0.27362
2830.00000    0.28737
2830.50000    0.29862
2831.00000    0.30712
2831.50000    0.31272
2832.00000    0.31528
2832.50000    0.31472
2833.00000    0.31103
2833.50000    0.30423
2834.00000    0.29440
2834.50000    0.28167
2835.00000    0.26620
2835.50000    0.24819
2836.00000    0.22787
2836.50000    0.20549
2837.00000    0.18135
2837.50000    0.15572
2838.00000    0.12892
2838.50000    0.10125
2839.00000    0.07305
2839.50000    0.04461
2840.00000    0.01626
2840.50000   -0.01172
2841.00000   -0.03905
2841.50000   -0.06546
2842.00000   -0.09076
2842.50000   -0.11473
2843.00000   -0.13725
2843.50000   -0.15820
2844.00000   -0.17751
2844.50000   -0.19515
2845.00000   -0.21113
2845.50000   -0.22548
2846.00000   -0.23822
2846.50000   -0.24941
2847.00000   -0.25908
2847.50000   -0.26726
2848.00000   -0.27395
2848.50000   -0.27912
2849.00000   -0.28272
2849.50000   -0.28465
2850.00000   -0.28482
2850.50000   -0.28313
2851.00000   -0.27945
2851.50000   -0.27372
2852.00000   -0.26587
2852.50000   -0.25590
2853.00000   -0.24389
2853.50000   -0.22997
2854.00000   -0.21435
2854.50000   -0.19734
2855.00000   -0.17930
2855.50000   -0.16067
2856.00000   -0.14192
2856.50000   -0.12354
2857.00000   -0.10605
2857.50000   -0.08989
2858.00000   -0.07549
2858.50000   -0.06318
2859.00000   -0.05320
2859.50000   -0.04568
2860.00000   -0.04061
2860.50000   -0.03786
2861.00000   -0.03719
2861.50000   -0.03823
2862.00000   -0.04054
2862.50000   -0.04358
2863.00000   -0.04678
2863.50000   -0.04955
2864.00000   -0.05133
2864.50000   -0.05157
2865.00000   -0.04983
2865.50000   -0.04572
2866.00000   -0.03900
2866.50000   -0.02954
2867.00000   -0.01734
2867.50000   -0.00253
2868.00000    0.01462
2868.50000    0.03372
2869.00000    0.05430
2869.50000    0.07580
2870.00000    0.09759
2870.50000    0.11902
2871.00000    0.13943
2871.50000    0.15820
2872.00000    0.17475
2872.50000    0.18855
2873.00000    0.19921
2873.50000    0.20643
2874.00000    0.21002
2874.50000    0.20995
2875.00000    0.20630
2875.50000    0.19929
2876.00000    0.18926
2876.50000    0.17663
2877.00000    0.16191
2877.50000    0.14569
2878.00000    0.12856
2878.50000    0.11113
2879.00000    0.09397
2879.50000    0.07764
2880.00000    0.06259
2880.50000    0.04921
2881.00000    0.03780
2881.50000    0.02852
2882.00000    0.02145
2882.50000    0.01655
2883.00000    0.01371
2883.50000    0.01268
2884.00000    0.01319
2884.50000    0.01489
2885.00000    0.01738
2885.50000    0.02027
2886.00000    0.02315
2886.50000    0.02562
2887.00000    0.02730
2887.50000    0.02787
2888.00000    0.02706
2888.50000    0.02464
2889.00000    0.02046
2889.50000    0.01447
2890.00000    0.00668
2890.50000   -0.00279
2891.00000   -0.01376
2891.50000   -0.02592
2892.00000   -0.03889
2892.50000   -0.05218
2893.00000   -0.06525
2893.50000   -0.07748
2894.00000   -0.08820
2894.50000   -0.09673
2895.00000   -0.10239
2895.50000   -0.10453
2896.00000   -0.10260
2896.50000   -0.09614
2897.00000   -0.08484
2897.50000   -0.06855
2898.00000   -0.04736
2898.50000   -0.02156
2899.00000    0.00834
2899.50000    0.04157
2900.00000    0.07718
2900.50000    0.11399
2901.00000    0.15071
2901.50000    0.18593
2902.00000    0.21822
2902.50000    0.24616
2903.00000    0.26844
2903.50000    0.28389
2904.00000    0.29157
2904.50000    0.29080
2905.00000    0.28121
2905.50000    0.26275
2906.00000    0.23572
2906.50000    0.20072
2907.00000    0.15868
2907.50000    0.11079
2908.00000    0.05841
2908.50000    0.00310
2909.00000   -0.05354
2909.50000   -0.10988
2910.00000   -0.16435
2910.50000   -0.21550
2911.00000   -0.26207
2911.50000   -0.30299
2912.00000   -0.33747
2912.50000   -0.36495
2913.00000   -0.38516
2913.50000   -0.39806
2914.00000   -0.40384
2914.50000   -0.40290
2915.00000   -0.39576
2915.50000   -0.38308
2916.00000   -0.36556
2916.50000   -0.34391
2917.00000   -0.31886
2917.50000   -0.29105
2918.00000   -0.26105
2918.50000   -0.22938
2919.00000   -0.19641
2919.50000   -0.16248
2920.00000   -0.12783
2920.50000   -0.09263
2921.00000   -0.05704
2921.50000   -0.02117
2922.00000    0.01482
2922.50000    0.05078
2923.00000    0.08652
2923.50000    0.12177
2924.00000    0.15624
2924.50000    0.18957
2925.00000    0.22136
2925.50000    0.25117
2926.00000    0.27854
2926.50000    0.30301
2927.00000    0.32417
2927.50000    0.34161
2928.00000    0.35502
2928.50000    0.36413
2929.00000    0.36880
2929.50000    0.36896
2930.00000    0.36465
2930.50000    0.35601
2931.00000    0.34329
2931.50000    0.32679
2932.00000    0.30690
2932.50000    0.28405
2933.00000    0.25871
2933.50000    0.23135
2934.00000    0.20243
2934.50000    0.17242
2935.00000    0.14172
2935.50000    0.11072
2936.00000    0.07975
2936.50000    0.04909
2937.00000    0.01901
2937.50000   -0.01029
2938.00000   -0.03862
2938.50000   -0.06579
2939.00000   -0.09163
2939.50000   -0.11597
2940.00000   -0.13862
2940.50000   -0.15939
2941.00000   -0.17804
2941.50000   -0.19437
2942.00000   -0.20812
2942.50000   -0.21909
2943.00000   -0.22706
2943.50000   -0.23184
2944.00000   -0.23331
2944.50000   -0.23139
2945.00000   -0.22608
2945.50000   -0.21745
2946.00000   -0.20565
2946.50000   -0.19095
2947.00000   -0.17368
2947.50000   -0.15424
2948.00000   -0.13310
2948.50000   -0.11081
2949.00000   -0.08792
2949.50000   -0.06500
2950.00000   -0.04263
2950.50000   -0.02136
2951.00000   -0.00170
2951.50000    0.01589
2952.00000    0.03101
2952.50000    0.04335
2953.00000    0.05264
2953.50000    0.05873
2954.00000    0.06150
2954.50000    0.06093
2955.00000    0.05705
2955.50000    0.04998
2956.00000    0.03986
2956.50000    0.02689
2957.00000    0.01132
2957.50000   -0.00655
2958.00000   -0.02640
2958.50000   -0.04785
2959.00000   -0.07051
2959.50000   -0.09393
2960.00000   -0.11764
2960.50000   -0.14114
2961.00000   -0.16392
2961.50000   -0.18544
2962.00000   -0.20517
2962.50000   -0.22259
2963.00000   -0.23719
2963.50000   -0.24852
2964.00000   -0.25617
2964.50000   -0.25981
2965.00000   -0.25921
2965.50000   -0.25420
2966.00000   -0.24476
2966.50000   -0.23094
2967.00000   -0.21294
2967.50000   -0.19103
2968.00000   -0.16561
2968.50000   -0.13714
2969.00000   -0.10616
2969.50000   -0.07328
2970.00000   -0.03911
2970.50000   -0.00430
2971.00000    0.03052
2971.50000    0.06474
2972.00000    0.09780
2972.50000    0.12918
2973.00000    0.15846
2973.50000    0.18528
2974.00000    0.20937
2974.50000    0.23055
2975.00000    0.24873
2975.50000    0.26390
2976.00000    0.27613
2976.50000    0.28558
2977.00000    0.29245
2977.50000    0.29699
2978.00000    0.29947
2978.50000    0.30021
2979.00000    0.29949
2979.50000    0.29758
2980.00000    0.29473
2980.50000    0.29112
2981.00000    0.28687
2981.50000    0.28203
2982.00000    0.27658
2982.50000    0.27041
2983.00000    0.26336
2983.50000    0.25520
2984.00000    0.24566
2984.50000    0.23446
2985.00000    0.22132
2985.50000    0.20599
2986.00000    0.18829
2986.50000    0.16810
2987.00000    0.14541
2987.50000    0.12032
2988.00000    0.09305
2988.50000    0.06394
2989.00000    0.03342
2989.50000    0.00206
2990.00000   -0.02954
2990.50000   -0.06072
2991.00000   -0.09082
2991.50000   -0.11919
2992.00000   -0.14524
2992.50000   -0.16848
2993.00000   -0.18850
2993.50000   -0.20504
2994.00000   -0.21797
2994.50000   -0.22729
2995.00000   -0.23314
2995.50000   -0.23576
2996.00000   -0.23550
2996.50000   -0.23276
2997.00000   -0.22800
2997.50000   -0.22168
2998.00000   -0.21424
2998.50000   -0.20609
2999.00000   -0.19757
2999.50000   -0.18891
