1200.50000   -0.24234
1201.00000   -0.22481
1201.50000   -0.20728
1202.00000   -0.18975
1202.50000   -0.17225
1203.00000   -0.15483
1203.50000   -0.13755
1204.00000   -0.12048
1204.50000   -0.10373
1205.00000   -0.08739
1205.50000   -0.07157
1206.00000   -0.05637
1206.50000   -0.04188
1207.00000   -0.02819
1207.50000   -0.01537
1208.00000   -0.00346
1208.50000    0.00752
1209.00000    0.01757
1209.50000    0.02673
1210.00000    0.03503
1210.50000    0.04257
1211.00000    0.04943
1211.50000    0.05572
1212.00000    0.06155
1212.50000    0.06705
1213.00000    0.07234
1213.50000    0.07751
1214.00000    0.08266
1214.50000    0.08787
1215.00000    0.09320
1215.50000    0.09866
1216.00000    0.10426
1216.50000    0.10998
1217.00000    0.11577
1217.50000    0.12156
1218.00000    0.12726
1218.50000    0.13275
1219.00000    0.13792
1219.50000    0.14263
1220.00000    0.14675
1220.50000    0.15014
1221.00000    0.15268
1221.50000    0.15425
1222.00000    0.15474
1222.50000    0.15408
1223.00000    0.15218
1223.50000    0.14901
1224.00000    0.14454
1224.50000    0.13877
1225.00000    0.13173
1225.50000    0.12347
1226.00000    0.11406
1226.50000    0.10361
1227.00000    0.09223
1227.50000    0.08008
1228.00000    0.06731
1228.50000    0.05411
1229.00000    0.04068
1229.50000    0.02722
1230.00000    0.01397
1230.50000    0.00113
1231.00000   -0.01107
1231.50000   -0.02241
1232.00000   -0.03267
1232.50000   -0.04167
1233.00000   -0.04924
1233.50000   -0.05523
1234.00000   -0.05952
1234.50000   -0.06203
1235.00000   -0.06274
1235.50000   -0.06163
1236.00000   -0.05877
1236.50000   -0.05425
1237.00000   -0.04821
1237.50000   -0.04082
1238.00000   -0.03230
1238.50000   -0.02289
1239.00000   -0.01286
1239.50000   -0.00249
1240.00000    0.00793
1240.50000    0.01813
1241.00000    0.02781
1241.50000    0.03673
1242.00000    0.04466
1242.50000    0.05140
1243.00000    0.05679
1243.50000    0.06071
1244.00000    0.06310
1244.50000    0.06392
1245.00000    0.06319
1245.50000    0.06095
1246.00000    0.05730
1246.50000    0.05235
1247.00000    0.04623
1247.50000    0.03909
1248.00000    0.03111
1248.50000    0.02244
1249.00000    0.01327
1249.50000    0.00374
1250.00000   -0.00600
1250.50000   -0.01579
1251.00000   -0.02551
1251.50000   -0.03505
1252.00000   -0.04430
1252.50000   -0.05318
1253.00000   -0.06161
1253.50000   -0.06953
1254.00000   -0.07685
1254.50000   -0.08354
1255.00000   -0.08954
1255.50000   -0.09480
1256.00000   -0.09928
1256.50000   -0.10295
1257.00000   -0.10577
1257.50000   -0.10774
1258.00000   -0.10884
1258.50000   -0.10910
1259.00000   -0.10854
1259.50000   -0.10721
1260.00000   -0.10519
1260.50000   -0.10259
1261.00000   -0.09951
1261.50000   -0.09611
1262.00000   -0.09253
1262.50000   -0.08896
1263.00000   -0.08556
1263.50000   -0.08253
1264.00000   -0.08002
1264.50000   -0.07820
1265.00000   -0.07720
1265.50000   -0.07713
1266.00000   -0.07806
1266.50000   -0.08003
1267.00000   -0.08303
1267.50000   -0.08701
1268.00000   -0.09187
1268.50000   -0.09746
1269.00000   -0.10362
1269.50000   -0.11012
1270.00000   -0.11673
1270.50000   -0.12318
1271.00000   -0.12921
1271.50000   -0.13454
1272.00000   -0.13893
1272.50000   -0.14213
1273.00000   -0.14393
1273.50000   -0.14414
1274.00000   -0.14263
1274.50000   -0.13930
1275.00000   -0.13409
1275.50000   -0.12701
1276.00000   -0.11808
1276.50000   -0.10740
1277.00000   -0.09509
1277.50000   -0.08129
1278.00000   -0.06619
1278.50000   -0.05000
1279.00000   -0.03294
1279.50000   -0.01522
1280.00000    0.00294
1280.50000    0.02129
1281.00000    0.03964
1281.50000    0.05778
1282.00000    0.07551
1282.50000    0.09267
1283.00000    0.10909
1283.50000    0.12463
1284.00000    0.13915
1284.50000    0.15254
1285.00000    0.16468
1285.50000    0.17548
1286.00000    0.18484
1286.50000    0.19270
1287.00000    0.19897
1287.50000    0.20359
1288.00000    0.20652
1288.50000    0.20772
1289.00000    0.20717
1289.50000    0.20486
1290.00000    0.20081
1290.50000    0.19508
1291.00000    0.18772
1291.50000    0.17882
1292.00000    0.16852
1292.50000    0.15694
1293.00000    0.14427
1293.50000    0.13069
1294.00000    0.11640
1294.50000    0.10163
1295.00000    0.08659
1295.50000    0.07151
1296.00000    0.05659
1296.50000    0.04203
1297.00000    0.02799
1297.50000    0.01462
1298.00000    0.00204
1298.50000   -0.00969
1299.00000   -0.02052
1299.50000   -0.03044
1300.00000   -0.03948
1300.50000   -0.04769
1301.00000   -0.05515
1301.50000   -0.06196
1302.00000   -0.06822
1302.50000   -0.07402
1303.00000   -0.07947
1303.50000   -0.08465
1304.00000   -0.08962
1304.50000   -0.09440
1305.00000   -0.09900
1305.50000   -0.10337
1306.00000   -0.10744
1306.50000   -0.11110
1307.00000   -0.11420
1307.50000   -0.11658
1308.00000   -0.11805
1308.50000   -0.11838
1309.00000   -0.11737
1309.50000   -0.11481
1310.00000   -0.11048
1310.50000   -0.10420
1311.00000   -0.09580
1311.50000   -0.08515
1312.00000   -0.07217
1312.50000   -0.05679
1313.00000   -0.03900
1313.50000   -0.01883
1314.00000    0.00364
1314.50000    0.02830
1315.00000    0.05501
1315.50000    0.08359
1316.00000    0.11384
1316.50000    0.14556
1317.00000    0.17852
1317.50000    0.21248
1318.00000    0.24723
1318.50000    0.28256
1319.00000    0.31827
1319.50000    0.35419
1320.00000    0.39018
1320.50000    0.42614
1321.00000    0.46198
1321.50000    0.49768
1322.00000    0.53325
1322.50000    0.56872
1323.00000    0.60419
1323.50000    0.63979
1324.00000    0.67568
1324.50000    0.71204
1325.00000    0.74911
1325.50000    0.78713
1326.00000    0.82636
1326.50000    0.86707
1327.00000    0.90954
1327.50000    0.95403
1328.00000    1.00080
1328.50000    1.05008
1329.00000    1.10206
1329.50000    1.15691
1330.00000    1.21474
1330.50000    1.27561
1331.00000    1.33951
1331.50000    1.40638
1332.00000    1.47609
1332.50000    1.54843
1333.00000    1.62315
1333.50000    1.69990
1334.00000    1.77830
1334.50000    1.85789
1335.00000    1.93817
1335.50000    2.01859
1336.00000    2.09856
1336.50000    2.17749
1337.00000    2.25473
1337.50000    2.32964
1338.00000    2.40160
1338.50000    2.46996
1339.00000    2.53414
1339.50000    2.59355
1340.00000    2.64765
1340.50000    2.69594
1341.00000    2.73800
1341.50000    2.77343
1342.00000    2.80191
1342.50000    2.82320
1343.00000    2.83710
1343.50000    2.84352
1344.00000    2.84243
1344.50000    2.83387
1345.00000    2.81798
1345.50000    2.79496
1346.00000    2.76508
1346.50000    2.72871
1347.00000    2.68626
1347.50000    2.63820
1348.00000    2.58509
1348.50000    2.52749
1349.00000    2.46602
1349.50000    2.40132
1350.00000    2.33405
1350.50000    2.26486
1351.00000    2.19439
1351.50000    2.12327
1352.00000    2.05208
1352.50000    1.98139
1353.00000    1.91168
1353.50000    1.84340
1354.00000    1.77694
1354.50000    1.71260
1355.00000    1.65062
1355.50000    1.59119
1356.00000    1.53440
1356.50000    1.48029
1357.00000    1.42884
1357.50000    1.37998
1358.00000    1.33357
1358.50000    1.28946
1359.00000    1.24744
1359.50000    1.20730
1360.00000    1.16880
1360.50000    1.13169
1361.00000    1.09573
1361.50000    1.06067
1362.00000    1.02629
1362.50000    0.99238
1363.00000    0.95874
1363.50000    0.92519
1364.00000    0.89161
1364.50000    0.85786
1365.00000    0.82387
1365.50000    0.78957
1366.00000    0.75495
1366.50000    0.72000
1367.00000    0.68475
1367.50000    0.64926
1368.00000    0.61361
1368.50000    0.57790
1369.00000    0.54226
1369.50000    0.50683
1370.00000    0.47175
1370.50000    0.43719
1371.00000    0.40332
1371.50000    0.37029
1372.00000    0.33828
1372.50000    0.30743
1373.00000    0.27789
1373.50000    0.24978
1374.00000    0.22320
1374.50000    0.19824
1375.00000    0.17493
1375.50000    0.15330
1376.00000    0.13335
1376.50000    0.11503
1377.00000    0.09828
1377.50000    0.08301
1378.00000    0.06911
1378.50000    0.05644
1379.00000    0.04487
1379.50000    0.03425
1380.00000    0.02442
1380.50000    0.01525
1381.00000    0.00659
1381.50000   -0.00167
1382.00000   -0.00964
1382.50000   -0.01738
1383.00000   -0.02496
1383.50000   -0.03238
1384.00000   -0.03965
1384.50000   -0.04671
1385.00000   -0.05351
1385.50000   -0.05993
1386.00000   -0.06588
1386.50000   -0.07121
1387.00000   -0.07576
1387.50000   -0.07939
1388.00000   -0.08194
1388.50000   -0.08323
1389.00000   -0.08313
1389.50000   -0.08149
1390.00000   -0.07820
1390.50000   -0.07317
1391.00000   -0.06631
1391.50000   -0.05761
1392.00000   -0.04704
1392.50000   -0.03465
1393.00000   -0.02048
1393.50000   -0.00465
1394.00000    0.01271
1394.50000    0.03143
1395.00000    0.05131
1395.50000    0.07213
1396.00000    0.09362
1396.50000    0.11552
1397.00000    0.13752
1397.50000    0.15933
1398.00000    0.18063
1398.50000    0.20110
1399.00000    0.22044
1399.50000    0.23835
1400.00000    0.25453
1400.50000    0.26872
1401.00000    0.28068
1401.50000    0.29022
1402.00000    0.29715
1402.50000    0.30135
1403.00000    0.30273
1403.50000    0.30127
1404.00000    0.29697
1404.50000    0.28989
1405.00000    0.28015
1405.50000    0.26788
1406.00000    0.25330
1406.50000    0.23662
1407.00000    0.21811
1407.50000    0.19805
1408.00000    0.17674
1408.50000    0.15449
1409.00000    0.13161
1409.50000    0.10842
1410.00000    0.08521
1410.50000    0.06227
1411.00000    0.03984
1411.50000    0.01816
1412.00000   -0.00258
1412.50000   -0.02221
1413.00000   -0.04060
1413.50000   -0.05765
1414.00000   -0.07330
1414.50000   -0.08749
1415.00000   -0.10023
1415.50000   -0.11150
1416.00000   -0.12134
1416.50000   -0.12978
1417.00000   -0.13684
1417.50000   -0.14259
1418.00000   -0.14705
1418.50000   -0.15029
1419.00000   -0.15232
1419.50000   -0.15320
1420.00000   -0.15295
1420.50000   -0.15160
1421.00000   -0.14918
1421.50000   -0.14570
1422.00000   -0.14121
1422.50000   -0.13573
1423.00000   -0.12928
1423.50000   -0.12192
1424.00000   -0.11368
1424.50000   -0.10463
1425.00000   -0.09482
1425.50000   -0.08432
1426.00000   -0.07323
1426.50000   -0.06161
1427.00000   -0.04957
1427.50000   -0.03720
1428.00000   -0.02462
1428.50000   -0.01191
1429.00000    0.00079
1429.50000    0.01336
1430.00000    0.02570
1430.50000    0.03766
1431.00000    0.04912
1431.50000    0.05993
1432.00000    0.06996
1432.50000    0.07905
1433.00000    0.08706
1433.50000    0.09384
1434.00000    0.09924
1434.50000    0.10313
1435.00000    0.10538
1435.50000    0.10589
1436.00000    0.10456
1436.50000    0.10135
1437.00000    0.09623
1437.50000    0.08922
1438.00000    0.08039
1438.50000    0.06983
1439.00000    0.05771
1439.50000    0.04422
1440.00000    0.02961
1440.50000    0.01418
1441.00000   -0.00177
1441.50000   -0.01789
1442.00000   -0.03380
1442.50000   -0.04916
1443.00000   -0.06359
1443.50000   -0.07676
1444.00000   -0.08834
1444.50000   -0.09806
1445.00000   -0.10569
1445.50000   -0.11104
1446.00000   -0.11399
1446.50000   -0.11445
1447.00000   -0.11241
1447.50000   -0.10790
1448.00000   -0.10100
1448.50000   -0.09183
1449.00000   -0.08055
1449.50000   -0.06733
1450.00000   -0.05237
1450.50000   -0.03589
1451.00000   -0.01808
1451.50000    0.00084
1452.00000    0.02068
1452.50000    0.04125
1453.00000    0.06238
1453.50000    0.08390
1454.00000    0.10567
1454.50000    0.12753
1455.00000    0.14936
1455.50000    0.17102
1456.00000    0.19236
1456.50000    0.21326
1457.00000    0.23356
1457.50000    0.25313
1458.00000    0.27181
1458.50000    0.28946
1459.00000    0.30593
1459.50000    0.32108
1460.00000    0.33478
1460.50000    0.34692
1461.00000    0.35740
1461.50000    0.36616
1462.00000    0.37316
1462.50000    0.37838
1463.00000    0.38183
1463.50000    0.38356
1464.00000    0.38362
1464.50000    0.38212
1465.00000    0.37913
1465.50000    0.37479
1466.00000    0.36920
1466.50000    0.36249
1467.00000    0.35478
1467.50000    0.34618
1468.00000    0.33679
1468.50000    0.32671
1469.00000    0.31603
1469.50000    0.30481
1470.00000    0.29313
1470.50000    0.28105
1471.00000    0.26863
1471.50000    0.25594
1472.00000    0.24304
1472.50000    0.23000
1473.00000    0.21688
1473.50000    0.20376
1474.00000    0.19072
1474.50000    0.17783
1475.00000    0.16516
1475.50000    0.15275
1476.00000    0.14065
1476.50000    0.12889
1477.00000    0.11747
1477.50000    0.10636
1478.00000    0.09554
1478.50000    0.08495
1479.00000    0.07449
1479.50000    0.06409
1480.00000    0.05364
1480.50000    0.04306
1481.00000    0.03225
1481.50000    0.02114
1482.00000    0.00969
1482.50000   -0.00210
1483.00000   -0.01423
1483.50000   -0.02661
1484.00000   -0.03916
1484.50000   -0.05173
1485.00000   -0.06415
1485.50000   -0.07624
1486.00000   -0.08779
1486.50000   -0.09858
1487.00000   -0.10843
1487.50000   -0.11714
1488.00000   -0.12457
1488.50000   -0.13062
1489.00000   -0.13522
1489.50000   -0.13835
1490.00000   -0.14007
1490.50000   -0.14048
1491.00000   -0.13972
1491.50000   -0.13799
1492.00000   -0.13550
1492.50000   -0.13251
1493.00000   -0.12925
1493.50000   -0.12597
1494.00000   -0.12289
1494.50000   -0.12020
1495.00000   -0.11804
1495.50000   -0.11653
1496.00000   -0.11570
1496.50000   -0.11554
1497.00000   -0.11601
1497.50000   -0.11699
1498.00000   -0.11834
1498.50000   -0.11987
1499.00000   -0.12140
1499.50000   -0.12270
1500.00000   -0.12358
1500.50000   -0.12383
1501.00000   -0.12328
1501.50000   -0.12178
1502.00000   -0.11924
1502.50000   -0.11557
1503.00000   -0.11077
1503.50000   -0.10483
1504.00000   -0.09781
1504.50000   -0.08978
1505.00000   -0.08086
1505.50000   -0.07116
1506.00000   -0.06082
1506.50000   -0.04998
1507.00000   -0.03877
1507.50000   -0.02732
1508.00000   -0.01576
1508.50000   -0.00418
1509.00000    0.00732
1509.50000    0.01868
1510.00000    0.02982
1510.50000    0.04072
1511.00000    0.05132
1511.50000    0.06160
1512.00000    0.07153
1512.50000    0.08110
1513.00000    0.09026
1513.50000    0.09898
1514.00000    0.10724
1514.50000    0.11497
1515.00000    0.12213
1515.50000    0.12867
1516.00000    0.13452
1516.50000    0.13962
1517.00000    0.14392
1517.50000    0.14737
1518.00000    0.14992
1518.50000    0.15153
1519.00000    0.15218
1519.50000    0.15187
1520.00000    0.15060
1520.50000    0.14840
1521.00000    0.14530
1521.50000    0.14135
1522.00000    0.13664
1522.50000    0.13122
1523.00000    0.12520
1523.50000    0.11867
1524.00000    0.11173
1524.50000    0.10447
1525.00000    0.09697
1525.50000    0.08934
1526.00000    0.08162
1526.50000    0.07389
1527.00000    0.06619
1527.50000    0.05853
1528.00000    0.05092
1528.50000    0.04335
1529.00000    0.03579
1529.50000    0.02819
1530.00000    0.02050
1530.50000    0.01266
1531.00000    0.00459
1531.50000   -0.00377
1532.00000   -0.01249
1532.50000   -0.02161
1533.00000   -0.03116
1533.50000   -0.04116
1534.00000   -0.05158
1534.50000   -0.06238
1535.00000   -0.07345
1535.50000   -0.08470
1536.00000   -0.09596
1536.50000   -0.10704
1537.00000   -0.11773
1537.50000   -0.12779
1538.00000   -0.13697
1538.50000   -0.14501
1539.00000   -0.15165
1539.50000   -0.15663
1540.00000   -0.15974
1540.50000   -0.16078
1541.00000   -0.15961
1541.50000   -0.15613
1542.00000   -0.15030
1542.50000   -0.14214
1543.00000   -0.13177
1543.50000   -0.11933
1544.00000   -0.10507
1544.50000   -0.08928
1545.00000   -0.07232
1545.50000   -0.05459
1546.00000   -0.03651
1546.50000   -0.01852
1547.00000   -0.00108
1547.50000    0.01540
1548.00000    0.03050
1548.50000    0.04389
1549.00000    0.05526
1549.50000    0.06441
1550.00000    0.07119
1550.50000    0.07556
1551.00000    0.07754
1551.50000    0.07725
1552.00000    0.07491
1552.50000    0.07079
1553.00000    0.06522
1553.50000    0.05860
1554.00000    0.05133
1554.50000    0.04388
1555.00000    0.03666
1555.50000    0.03013
1556.00000    0.02466
1556.50000    0.02062
1557.00000    0.01833
1557.50000    0.01804
1558.00000    0.01997
1558.50000    0.02425
1559.00000    0.03101
1559.50000    0.04029
1560.00000    0.05214
1560.50000    0.06655
1561.00000    0.08353
1561.50000    0.10306
1562.00000    0.12514
1562.50000    0.14979
1563.00000    0.17704
1563.50000    0.20696
1564.00000    0.23965
1564.50000    0.27522
1565.00000    0.31382
1565.50000    0.35560
1566.00000    0.40074
1566.50000    0.44942
1567.00000    0.50181
1567.50000    0.55806
1568.00000    0.61832
1568.50000    0.68269
1569.00000    0.75125
1569.50000    0.82404
1570.00000    0.90108
1570.50000    0.98234
1571.00000    1.06776
1571.50000    1.15725
1572.00000    1.25071
1572.50000    1.34798
1573.00000    1.44890
1573.50000    1.55331
1574.00000    1.66099
1574.50000    1.77172
1575.00000    1.88526
1575.50000    2.00132
1576.00000    2.11961
1576.50000    2.23976
1577.00000    2.36140
1577.50000    2.48406
1578.00000    2.60726
1578.50000    2.73042
1579.00000    2.85294
1579.50000    2.97414
1580.00000    3.09330
1580.50000    3.20966
1581.00000    3.32243
1581.50000    3.43082
1582.00000    3.53402
1582.50000    3.63127
1583.00000    3.72183
1583.50000    3.80502
1584.00000    3.88024
1584.50000    3.94696
1585.00000    4.00478
1585.50000    4.05338
1586.00000    4.09257
1586.50000    4.12227
1587.00000    4.14251
1587.50000    4.15342
1588.00000    4.15524
1588.50000    4.14830
1589.00000    4.13299
1589.50000    4.10976
1590.00000    4.07913
1590.50000    4.04161
1591.00000    3.99775
1591.50000    3.94811
1592.00000    3.89325
1592.50000    3.83369
1593.00000    3.76997
1593.50000    3.70262
1594.00000    3.63212
1594.50000    3.55897
1595.00000    3.48364
1595.50000    3.40659
1596.00000    3.32826
1596.50000    3.24910
1597.00000    3.16955
1597.50000    3.09001
1598.00000    3.01088
1598.50000    2.93256
1599.00000    2.85541
1599.50000    2.77973
1600.00000    2.70584
1600.50000    2.63395
1601.00000    2.56428
1601.50000    2.49695
1602.00000    2.43203
1602.50000    2.36955
1603.00000    2.30944
1603.50000    2.25161
1604.00000    2.19591
1604.50000    2.14214
1605.00000    2.09006
1605.50000    2.03944
1606.00000    1.98999
1606.50000    1.94147
1607.00000    1.89363
1607.50000    1.84625
1608.00000    1.79913
1608.50000    1.75216
1609.00000    1.70523
1609.50000    1.65832
1610.00000    1.61146
1610.50000    1.56475
1611.00000    1.51833
1611.50000    1.47240
1612.00000    1.42720
1612.50000    1.38302
1613.00000    1.34016
1613.50000    1.29892
1614.00000    1.25964
1614.50000    1.22261
1615.00000    1.18813
1615.50000    1.15645
1616.00000    1.12778
1616.50000    1.10230
1617.00000    1.08012
1617.50000    1.06130
1618.00000    1.04584
1618.50000    1.03368
1619.00000    1.02472
1619.50000    1.01878
1620.00000    1.01565
1620.50000    1.01506
1621.00000    1.01671
1621.50000    1.02027
1622.00000    1.02538
1622.50000    1.03168
1623.00000    1.03877
1623.50000    1.04627
1624.00000    1.05381
1624.50000    1.06101
1625.00000    1.06751
1625.50000    1.07299
1626.00000    1.07712
1626.50000    1.07964
1627.00000    1.08027
1627.50000    1.07879
1628.00000    1.07502
1628.50000    1.06877
1629.00000    1.05993
1629.50000    1.04839
1630.00000    1.03409
1630.50000    1.01697
1631.00000    0.99705
1631.50000    0.97433
1632.00000    0.94886
1632.50000    0.92072
1633.00000    0.89002
1633.50000    0.85687
1634.00000    0.82144
1634.50000    0.78389
1635.00000    0.74443
1635.50000    0.70328
1636.00000    0.66066
1636.50000    0.61684
1637.00000    0.57208
1637.50000    0.52666
1638.00000    0.48087
1638.50000    0.43499
1639.00000    0.38932
1639.50000    0.34416
1640.00000    0.29979
1640.50000    0.25649
1641.00000    0.21452
1641.50000    0.17415
1642.00000    0.13560
1642.50000    0.09909
1643.00000    0.06482
1643.50000    0.03293
1644.00000    0.00358
1644.50000   -0.02313
1645.00000   -0.04712
1645.50000   -0.06835
1646.00000   -0.08678
1646.50000   -0.10243
1647.00000   -0.11535
1647.50000   -0.12558
1648.00000   -0.13322
1648.50000   -0.13838
1649.00000   -0.14118
1649.50000   -0.14179
1650.00000   -0.14035
1650.50000   -0.13704
1651.00000   -0.13205
1651.50000   -0.12557
1652.00000   -0.11779
1652.50000   -0.10890
1653.00000   -0.09911
1653.50000   -0.08862
1654.00000   -0.07762
1654.50000   -0.06628
1655.00000   -0.05481
1655.50000   -0.04336
1656.00000   -0.03209
1656.50000   -0.02116
1657.00000   -0.01069
1657.50000   -0.00081
1658.00000    0.00841
1658.50000    0.01687
1659.00000    0.02453
1659.50000    0.03135
1660.00000    0.03732
1660.50000    0.04247
1661.00000    0.04682
1661.50000    0.05044
1662.00000    0.05339
1662.50000    0.05578
1663.00000    0.05769
1663.50000    0.05925
1664.00000    0.06056
1664.50000    0.06173
1665.00000    0.06287
1665.50000    0.06407
1666.00000    0.06541
1666.50000    0.06694
1667.00000    0.06871
1667.50000    0.07074
1668.00000    0.07303
1668.50000    0.07554
1669.00000    0.07824
1669.50000    0.08107
1670.00000    0.08394
1670.50000    0.08678
1671.00000    0.08950
1671.50000    0.09200
1672.00000    0.09421
1672.50000    0.09603
1673.00000    0.09741
1673.50000    0.09830
1674.00000    0.09865
1674.50000    0.09844
1675.00000    0.09767
1675.50000    0.09634
1676.00000    0.09447
1676.50000    0.09209
1677.00000    0.08923
1677.50000    0.08592
1678.00000    0.08219
1678.50000    0.07807
1679.00000    0.07359
1679.50000    0.06875
1680.00000    0.06358
1680.50000    0.05805
1681.00000    0.05218
1681.50000    0.04596
1682.00000    0.03936
1682.50000    0.03238
1683.00000    0.02501
1683.50000    0.01727
1684.00000    0.00916
1684.50000    0.00072
1685.00000   -0.00801
1685.50000   -0.01696
1686.00000   -0.02605
1686.50000   -0.03520
1687.00000   -0.04428
1687.50000   -0.05318
1688.00000   -0.06179
1688.50000   -0.06996
1689.00000   -0.07759
1689.50000   -0.08455
1690.00000   -0.09074
1690.50000   -0.09607
1691.00000   -0.10047
1691.50000   -0.10389
1692.00000   -0.10629
1692.50000   -0.10767
1693.00000   -0.10804
1693.50000   -0.10743
1694.00000   -0.10588
1694.50000   -0.10346
1695.00000   -0.10024
1695.50000   -0.09631
1696.00000   -0.09175
1696.50000   -0.08667
1697.00000   -0.08116
1697.50000   -0.07534
1698.00000   -0.06929
1698.50000   -0.06313
1699.00000   -0.05697
1699.50000   -0.05092
1700.00000   -0.04508
1700.50000   -0.03956
1701.00000   -0.03449
1701.50000   -0.02997
1702.00000   -0.02611
1702.50000   -0.02303
1703.00000   -0.02081
1703.50000   -0.01956
1704.00000   -0.01933
1704.50000   -0.02020
1705.00000   -0.02220
1705.50000   -0.02532
1706.00000   -0.02957
1706.50000   -0.03488
1707.00000   -0.04116
1707.50000   -0.04832
1708.00000   -0.05620
1708.50000   -0.06463
1709.00000   -0.07342
1709.50000   -0.08235
1710.00000   -0.09120
1710.50000   -0.09974
1711.00000   -0.10772
1711.50000   -0.11493
1712.00000   -0.12116
1712.50000   -0.12622
1713.00000   -0.12993
1713.50000   -0.13216
1714.00000   -0.13279
1714.50000   -0.13175
1715.00000   -0.12898
1715.50000   -0.12445
1716.00000   -0.11818
1716.50000   -0.11019
1717.00000   -0.10054
1717.50000   -0.08930
1718.00000   -0.07657
1718.50000   -0.06246
1719.00000   -0.04710
1719.50000   -0.03065
1720.00000   -0.01326
1720.50000    0.00487
1721.00000    0.02354
1721.50000    0.04253
1722.00000    0.06160
1722.50000    0.08050
1723.00000    0.09894
1723.50000    0.11665
1724.00000    0.13333
1724.50000    0.14869
1725.00000    0.16245
1725.50000    0.17434
1726.00000    0.18411
1726.50000    0.19155
1727.00000    0.19650
1727.50000    0.19884
1728.00000    0.19852
1728.50000    0.19553
1729.00000    0.18997
1729.50000    0.18198
1730.00000    0.17176
1730.50000    0.15959
1731.00000    0.14580
1731.50000    0.13075
1732.00000    0.11484
1732.50000    0.09850
1733.00000    0.08215
1733.50000    0.06620
1734.00000    0.05103
1734.50000    0.03700
1735.00000    0.02439
1735.50000    0.01343
1736.00000    0.00428
1736.50000   -0.00298
1737.00000   -0.00835
1737.50000   -0.01189
1738.00000   -0.01375
1738.50000   -0.01415
1739.00000   -0.01334
1739.50000   -0.01163
1740.00000   -0.00933
1740.50000   -0.00680
1741.00000   -0.00437
1741.50000   -0.00235
1742.00000   -0.00102
1742.50000   -0.00062
1743.00000   -0.00132
1743.50000   -0.00326
1744.00000   -0.00646
1744.50000   -0.01091
1745.00000   -0.01651
1745.50000   -0.02310
1746.00000   -0.03045
1746.50000   -0.03829
1747.00000   -0.04629
1747.50000   -0.05410
1748.00000   -0.06136
1748.50000   -0.06768
1749.00000   -0.07270
1749.50000   -0.07608
1750.00000   -0.07749
1750.50000   -0.07669
1751.00000   -0.07345
1751.50000   -0.06762
1752.00000   -0.05912
1752.50000   -0.04792
1753.00000   -0.03407
1753.50000   -0.01768
1754.00000    0.00109
1754.50000    0.02203
1755.00000    0.04487
1755.50000    0.06934
1756.00000    0.09512
1756.50000    0.12187
1757.00000    0.14927
1757.50000    0.17697
1758.00000    0.20464
1758.50000    0.23197
1759.00000    0.25866
1759.50000    0.28443
1760.00000    0.30903
1760.50000    0.33223
1761.00000    0.35381
1761.50000    0.37360
1762.00000    0.39143
1762.50000    0.40718
1763.00000    0.42073
1763.50000    0.43199
1764.00000    0.44089
1764.50000    0.44740
1765.00000    0.45148
1765.50000    0.45314
1766.00000    0.45241
1766.50000    0.44934
1767.00000    0.44399
1767.50000    0.43648
1768.00000    0.42692
1768.50000    0.41545
1769.00000    0.40223
1769.50000    0.38742
1770.00000    0.37120
1770.50000    0.35375
1771.00000    0.33523
1771.50000    0.31582
1772.00000    0.29567
1772.50000    0.27493
1773.00000    0.25370
1773.50000    0.23211
1774.00000    0.21022
1774.50000    0.18811
1775.00000    0.16583
1775.50000    0.14343
1776.00000    0.12095
1776.50000    0.09842
1777.00000    0.07588
1777.50000    0.05341
1778.00000    0.03107
1778.50000    0.00897
1779.00000   -0.01276
1779.50000   -0.03398
1780.00000   -0.05451
1780.50000   -0.07413
1781.00000   -0.09262
1781.50000   -0.10974
1782.00000   -0.12524
1782.50000   -0.13886
1783.00000   -0.15038
1783.50000   -0.15956
1784.00000   -0.16621
1784.50000   -0.17016
1785.00000   -0.17132
1785.50000   -0.16959
1786.00000   -0.16497
1786.50000   -0.15750
1787.00000   -0.14726
1787.50000   -0.13440
1788.00000   -0.11913
1788.50000   -0.10170
1789.00000   -0.08238
1789.50000   -0.06151
1790.00000   -0.03945
1790.50000   -0.01657
1791.00000    0.00675
1791.50000    0.03010
1792.00000    0.05311
1792.50000    0.07539
1793.00000    0.09658
1793.50000    0.11636
1794.00000    0.13442
1794.50000    0.15050
1795.00000    0.16438
1795.50000    0.17587
1796.00000    0.18484
1796.50000    0.19120
1797.00000    0.19490
1797.50000    0.19596
1798.00000    0.19440
1798.50000    0.19031
1799.00000    0.18380
1799.50000    0.17501
1800.00000    0.16411
1800.50000    0.15129
1801.00000    0.13675
1801.50000    0.12070
1802.00000    0.10337
1802.50000    0.08497
1803.00000    0.06573
1803.50000    0.04586
1804.00000    0.02559
1804.50000    0.00512
1805.00000   -0.01535
1805.50000   -0.03561
1806.00000   -0.05548
1806.50000   -0.07477
1807.00000   -0.09329
1807.50000   -0.11087
1808.00000   -0.12733
1808.50000   -0.14251
1809.00000   -0.15624
1809.50000   -0.16837
1810.00000   -0.17877
1810.50000   -0.18730
1811.00000   -0.19388
1811.50000   -0.19841
1812.00000   -0.20087
1812.50000   -0.20123
1813.00000   -0.19951
1813.50000   -0.19578
1814.00000   -0.19014
1814.50000   -0.18273
1815.00000   -0.17372
1815.50000   -0.16332
1816.00000   -0.15176
1816.50000   -0.13928
1817.00000   -0.12615
1817.50000   -0.11262
1818.00000   -0.09896
1818.50000   -0.08541
1819.00000   -0.07218
1819.50000   -0.05946
1820.00000   -0.04742
1820.50000   -0.03617
1821.00000   -0.02579
1821.50000   -0.01633
1822.00000   -0.00779
1822.50000   -0.00014
1823.00000    0.00665
1823.50000    0.01267
1824.00000    0.01799
1824.50000    0.02269
1825.00000    0.02685
1825.50000    0.03054
1826.00000    0.03380
1826.50000    0.03667
1827.00000    0.03915
1827.50000    0.04121
1828.00000    0.04282
1828.50000    0.04392
1829.00000    0.04445
1829.50000    0.04434
1830.00000    0.04352
1830.50000    0.04194
1831.00000    0.03958
1831.50000    0.03642
1832.00000    0.03250
1832.50000    0.02789
1833.00000    0.02269
1833.50000    0.01706
1834.00000    0.01119
1834.50000    0.00529
1835.00000   -0.00039
1835.50000   -0.00557
1836.00000   -0.00998
1836.50000   -0.01333
1837.00000   -0.01537
1837.50000   -0.01584
1838.00000   -0.01453
1838.50000   -0.01127
1839.00000   -0.00594
1839.50000    0.00151
1840.00000    0.01109
1840.50000    0.02274
1841.00000    0.03633
1841.50000    0.05167
1842.00000    0.06851
1842.50000    0.08655
1843.00000    0.10546
1843.50000    0.12484
1844.00000    0.14431
1844.50000    0.16345
1845.00000    0.18183
1845.50000    0.19904
1846.00000    0.21469
1846.50000    0.22839
1847.00000    0.23981
1847.50000    0.24864
1848.00000    0.25461
1848.50000    0.25753
1849.00000    0.25723
1849.50000    0.25361
1850.00000    0.24664
1850.50000    0.23633
1851.00000    0.22276
1851.50000    0.20606
1852.00000    0.18642
1852.50000    0.16410
1853.00000    0.13939
1853.50000    0.11263
1854.00000    0.08421
1854.50000    0.05455
1855.00000    0.02411
1855.50000   -0.00664
1856.00000   -0.03719
1856.50000   -0.06704
1857.00000   -0.09569
1857.50000   -0.12265
1858.00000   -0.14744
1858.50000   -0.16961
1859.00000   -0.18877
1859.50000   -0.20457
1860.00000   -0.21669
1860.50000   -0.22492
1861.00000   -0.22909
1861.50000   -0.22912
1862.00000   -0.22501
1862.50000   -0.21683
1863.00000   -0.20475
1863.50000   -0.18899
1864.00000   -0.16987
1864.50000   -0.14776
1865.00000   -0.12309
1865.50000   -0.09634
1866.00000   -0.06802
1866.50000   -0.03868
1867.00000   -0.00885
1867.50000    0.02091
1868.00000    0.05008
1868.50000    0.07814
1869.00000    0.10463
1869.50000    0.12911
1870.00000    0.15121
1870.50000    0.17062
1871.00000    0.18707
1871.50000    0.20038
1872.00000    0.21040
1872.50000    0.21707
1873.00000    0.22038
1873.50000    0.22037
1874.00000    0.21713
1874.50000    0.21080
1875.00000    0.20157
1875.50000    0.18966
1876.00000    0.17531
1876.50000    0.15880
1877.00000    0.14045
1877.50000    0.12057
1878.00000    0.09951
1878.50000    0.07763
1879.00000    0.05529
1879.50000    0.03287
1880.00000    0.01075
1880.50000   -0.01070
1881.00000   -0.03112
1881.50000   -0.05016
1882.00000   -0.06749
1882.50000   -0.08283
1883.00000   -0.09591
1883.50000   -0.10655
1884.00000   -0.11457
1884.50000   -0.11989
1885.00000   -0.12248
1885.50000   -0.12238
1886.00000   -0.11967
1886.50000   -0.11452
1887.00000   -0.10716
1887.50000   -0.09784
1888.00000   -0.08689
1888.50000   -0.07464
1889.00000   -0.06146
1889.50000   -0.04771
1890.00000   -0.03376
1890.50000   -0.01995
1891.00000   -0.00659
1891.50000    0.00602
1892.00000    0.01767
1892.50000    0.02817
1893.00000    0.03739
1893.50000    0.04525
1894.00000    0.05172
1894.50000    0.05680
1895.00000    0.06055
1895.50000    0.06302
1896.00000    0.06432
1896.50000    0.06455
1897.00000    0.06382
1897.50000    0.06222
1898.00000    0.05987
1898.50000    0.05683
1899.00000    0.05320
1899.50000    0.04904
1900.00000    0.04440
1900.50000    0.03932
1901.00000    0.03387
1901.50000    0.02807
1902.00000    0.02199
1902.50000    0.01568
1903.00000    0.00921
1903.50000    0.00267
1904.00000   -0.00383
1904.50000   -0.01021
1905.00000   -0.01632
1905.50000   -0.02206
1906.00000   -0.02728
1906.50000   -0.03189
1907.00000   -0.03576
1907.50000   -0.03882
1908.00000   -0.04099
1908.50000   -0.04227
1909.00000   -0.04264
1909.50000   -0.04216
1910.00000   -0.04091
1910.50000   -0.03902
1911.00000   -0.03664
1911.50000   -0.03397
1912.00000   -0.03122
1912.50000   -0.02862
1913.00000   -0.02640
1913.50000   -0.02479
1914.00000   -0.02400
1914.50000   -0.02422
1915.00000   -0.02561
1915.50000   -0.02828
1916.00000   -0.03227
1916.50000   -0.03760
1917.00000   -0.04419
1917.50000   -0.05193
1918.00000   -0.06064
1918.50000   -0.07008
1919.00000   -0.07996
1919.50000   -0.08996
1920.00000   -0.09972
1920.50000   -0.10887
1921.00000   -0.11703
1921.50000   -0.12384
1922.00000   -0.12897
1922.50000   -0.13210
1923.00000   -0.13300
1923.50000   -0.13148
1924.00000   -0.12741
1924.50000   -0.12078
1925.00000   -0.11161
1925.50000   -0.10002
1926.00000   -0.08620
1926.50000   -0.07041
1927.00000   -0.05295
1927.50000   -0.03418
1928.00000   -0.01446
1928.50000    0.00582
1929.00000    0.02630
1929.50000    0.04662
1930.00000    0.06647
1930.50000    0.08560
1931.00000    0.10379
1931.50000    0.12092
1932.00000    0.13691
1932.50000    0.15175
1933.00000    0.16548
1933.50000    0.17819
1934.00000    0.19002
1934.50000    0.20111
1935.00000    0.21163
1935.50000    0.22174
1936.00000    0.23157
1936.50000    0.24124
1937.00000    0.25083
1937.50000    0.26035
1938.00000    0.26980
1938.50000    0.27911
1939.00000    0.28817
1939.50000    0.29684
1940.00000    0.30493
1940.50000    0.31226
1941.00000    0.31862
1941.50000    0.32381
1942.00000    0.32763
1942.50000    0.32993
1943.00000    0.33058
1943.50000    0.32949
1944.00000    0.32662
1944.50000    0.32196
1945.00000    0.31557
1945.50000    0.30753
1946.00000    0.29796
1946.50000    0.28702
1947.00000    0.27489
1947.50000    0.26173
1948.00000    0.24775
1948.50000    0.23312
1949.00000    0.21802
1949.50000    0.20260
1950.00000    0.18700
1950.50000    0.17133
1951.00000    0.15567
1951.50000    0.14011
1952.00000    0.12469
1952.50000    0.10945
1953.00000    0.09442
1953.50000    0.07961
1954.00000    0.06505
1954.50000    0.05076
1955.00000    0.03677
1955.50000    0.02310
1956.00000    0.00981
1956.50000   -0.00307
1957.00000   -0.01546
1957.50000   -0.02732
1958.00000   -0.03856
1958.50000   -0.04912
1959.00000   -0.05893
1959.50000   -0.06793
1960.00000   -0.07606
1960.50000   -0.08327
1961.00000   -0.08951
1961.50000   -0.09478
1962.00000   -0.09905
1962.50000   -0.10232
1963.00000   -0.10463
1963.50000   -0.10599
1964.00000   -0.10646
1964.50000   -0.10608
1965.00000   -0.10493
1965.50000   -0.10308
1966.00000   -0.10060
1966.50000   -0.09758
1967.00000   -0.09409
1967.50000   -0.09022
1968.00000   -0.08605
1968.50000   -0.08163
1969.00000   -0.07704
1969.50000   -0.07232
1970.00000   -0.06750
1970.50000   -0.06260
1971.00000   -0.05762
1971.50000   -0.05255
1972.00000   -0.04737
1972.50000   -0.04201
1973.00000   -0.03641
1973.50000   -0.03051
1974.00000   -0.02420
1974.50000   -0.01738
1975.00000   -0.00997
1975.50000   -0.00184
1976.00000    0.00711
1976.50000    0.01696
1977.00000    0.02780
1977.50000    0.03971
1978.00000    0.05274
1978.50000    0.06692
1979.00000    0.08227
1979.50000    0.09876
1980.00000    0.11639
1980.50000    0.13508
1981.00000    0.15479
1981.50000    0.17541
1982.00000    0.19687
1982.50000    0.21905
1983.00000    0.24186
1983.50000    0.26521
1984.00000    0.28899
1984.50000    0.31313
1985.00000    0.33757
1985.50000    0.36223
1986.00000    0.38710
1986.50000    0.41213
1987.00000    0.43732
1987.50000    0.46264
1988.00000    0.48809
1988.50000    0.51366
1989.00000    0.53929
1989.50000    0.56495
1990.00000    0.59056
1990.50000    0.61599
1991.00000    0.64110
1991.50000    0.66569
1992.00000    0.68952
1992.50000    0.71232
1993.00000    0.73376
1993.50000    0.75350
1994.00000    0.77115
1994.50000    0.78633
1995.00000    0.79864
1995.50000    0.80771
1996.00000    0.81318
1996.50000    0.81473
1997.00000    0.81212
1997.50000    0.80515
1998.00000    0.79373
1998.50000    0.77783
1999.00000    0.75753
1999.50000    0.73303
2000.00000    0.70461
2000.50000    0.67264
2001.00000    0.63758
2001.50000    0.59998
2002.00000    0.56044
2002.50000    0.51961
2003.00000    0.47816
2003.50000    0.43676
2004.00000    0.39606
2004.50000    0.35670
2005.00000    0.31924
2005.50000    0.28414
2006.00000    0.25183
2006.50000    0.22257
2007.00000    0.19656
2007.50000    0.17386
2008.00000    0.15443
2008.50000    0.13810
2009.00000    0.12461
2009.50000    0.11360
2010.00000    0.10467
2010.50000    0.09731
2011.00000    0.09102
2011.50000    0.08526
2012.00000    0.07950
2012.50000    0.07324
2013.00000    0.06604
2013.50000    0.05748
2014.00000    0.04727
2014.50000    0.03516
2015.00000    0.02102
2015.50000    0.00482
2016.00000   -0.01338
2016.50000   -0.03341
2017.00000   -0.05502
2017.50000   -0.07789
2018.00000   -0.10160
2018.50000   -0.12570
2019.00000   -0.14970
2019.50000   -0.17307
2020.00000   -0.19530
2020.50000   -0.21588
2021.00000   -0.23434
2021.50000   -0.25025
2022.00000   -0.26326
2022.50000   -0.27309
2023.00000   -0.27953
2023.50000   -0.28248
2024.00000   -0.28195
2024.50000   -0.27802
2025.00000   -0.27088
2025.50000   -0.26080
2026.00000   -0.24815
2026.50000   -0.23333
2027.00000   -0.21682
2027.50000   -0.19911
2028.00000   -0.18071
2028.50000   -0.16212
2029.00000   -0.14381
2029.50000   -0.12620
2030.00000   -0.10965
2030.50000   -0.09444
2031.00000   -0.08076
2031.50000   -0.06871
2032.00000   -0.05829
2032.50000   -0.04940
2033.00000   -0.04186
2033.50000   -0.03542
2034.00000   -0.02976
2034.50000   -0.02453
2035.00000   -0.01936
2035.50000   -0.01387
2036.00000   -0.00773
2036.50000   -0.00062
2037.00000    0.00768
2037.50000    0.01734
2038.00000    0.02845
2038.50000    0.04098
2039.00000    0.05483
2039.50000    0.06981
2040.00000    0.08566
2040.50000    0.10204
2041.00000    0.11857
2041.50000    0.13485
2042.00000    0.15045
2042.50000    0.16496
2043.00000    0.17801
2043.50000    0.18924
2044.00000    0.19838
2044.50000    0.20520
2045.00000    0.20956
2045.50000    0.21137
2046.00000    0.21065
2046.50000    0.20744
2047.00000    0.20186
2047.50000    0.19407
2048.00000    0.18427
2048.50000    0.17267
2049.00000    0.15951
2049.50000    0.14501
2050.00000    0.12939
2050.50000    0.11284
2051.00000    0.09556
2051.50000    0.07772
2052.00000    0.05945
2052.50000    0.04091
2053.00000    0.02221
2053.50000    0.00350
2054.00000   -0.01510
2054.50000   -0.03342
2055.00000   -0.05131
2055.50000   -0.06856
2056.00000   -0.08497
2056.50000   -0.10030
2057.00000   -0.11430
2057.50000   -0.12670
2058.00000   -0.13725
2058.50000   -0.14568
2059.00000   -0.15176
2059.50000   -0.15529
2060.00000   -0.15611
2060.50000   -0.15413
2061.00000   -0.14929
2061.50000   -0.14163
2062.00000   -0.13124
2062.50000   -0.11829
2063.00000   -0.10303
2063.50000   -0.08574
2064.00000   -0.06680
2064.50000   -0.04659
2065.00000   -0.02554
2065.50000   -0.00409
2066.00000    0.01730
2066.50000    0.03821
2067.00000    0.05825
2067.50000    0.07704
2068.00000    0.09429
2068.50000    0.10976
2069.00000    0.12327
2069.50000    0.13472
2070.00000    0.14408
2070.50000    0.15142
2071.00000    0.15683
2071.50000    0.16051
2072.00000    0.16267
2072.50000    0.16358
2073.00000    0.16353
2073.50000    0.16281
2074.00000    0.16173
2074.50000    0.16055
2075.00000    0.15954
2075.50000    0.15888
2076.00000    0.15873
2076.50000    0.15918
2077.00000    0.16027
2077.50000    0.16197
2078.00000    0.16417
2078.50000    0.16674
2079.00000    0.16948
2079.50000    0.17216
2080.00000    0.17452
2080.50000    0.17631
2081.00000    0.17726
2081.50000    0.17712
2082.00000    0.17567
2082.50000    0.17275
2083.00000    0.16820
2083.50000    0.16195
2084.00000    0.15398
2084.50000    0.14430
2085.00000    0.13298
2085.50000    0.12016
2086.00000    0.10597
2086.50000    0.09059
2087.00000    0.07422
2087.50000    0.05703
2088.00000    0.03923
2088.50000    0.02098
2089.00000    0.00244
2089.50000   -0.01626
2090.00000   -0.03501
2090.50000   -0.05373
2091.00000   -0.07237
2091.50000   -0.09085
2092.00000   -0.10916
2092.50000   -0.12723
2093.00000   -0.14502
2093.50000   -0.16245
2094.00000   -0.17944
2094.50000   -0.19586
2095.00000   -0.21156
2095.50000   -0.22637
2096.00000   -0.24007
2096.50000   -0.25245
2097.00000   -0.26326
2097.50000   -0.27226
2098.00000   -0.27921
2098.50000   -0.28389
2099.00000   -0.28612
2099.50000   -0.28575
2100.00000   -0.28268
2100.50000   -0.27687
2101.00000   -0.26833
2101.50000   -0.25714
2102.00000   -0.24345
2102.50000   -0.22744
2103.00000   -0.20936
2103.50000   -0.18949
2104.00000   -0.16814
2104.50000   -0.14565
2105.00000   -0.12235
2105.50000   -0.09857
2106.00000   -0.07462
2106.50000   -0.05079
2107.00000   -0.02734
2107.50000   -0.00451
2108.00000    0.01752
2108.50000    0.03858
2109.00000    0.05853
2109.50000    0.07727
2110.00000    0.09471
2110.50000    0.11074
2111.00000    0.12529
2111.50000    0.13828
2112.00000    0.14959
2112.50000    0.15912
2113.00000    0.16676
2113.50000    0.17236
2114.00000    0.17579
2114.50000    0.17692
2115.00000    0.17563
2115.50000    0.17182
2116.00000    0.16542
2116.50000    0.15639
2117.00000    0.14476
2117.50000    0.13061
2118.00000    0.11407
2118.50000    0.09535
2119.00000    0.07472
2119.50000    0.05250
2120.00000    0.02907
2120.50000    0.00486
2121.00000   -0.01967
2121.50000   -0.04405
2122.00000   -0.06778
2122.50000   -0.09037
2123.00000   -0.11138
2123.50000   -0.13035
2124.00000   -0.14689
2124.50000   -0.16065
2125.00000   -0.17135
2125.50000   -0.17876
2126.00000   -0.18270
2126.50000   -0.18308
2127.00000   -0.17985
2127.50000   -0.17304
2128.00000   -0.16272
2128.50000   -0.14903
2129.00000   -0.13213
2129.50000   -0.11224
2130.00000   -0.08963
2130.50000   -0.06459
2131.00000   -0.03742
2131.50000   -0.00848
2132.00000    0.02189
2132.50000    0.05330
2133.00000    0.08537
2133.50000    0.11773
2134.00000    0.14998
2134.50000    0.18176
2135.00000    0.21270
2135.50000    0.24246
2136.00000    0.27074
2136.50000    0.29725
2137.00000    0.32175
2137.50000    0.34405
2138.00000    0.36399
2138.50000    0.38147
2139.00000    0.39644
2139.50000    0.40888
2140.00000    0.41885
2140.50000    0.42643
2141.00000    0.43173
2141.50000    0.43493
2142.00000    0.43620
2142.50000    0.43576
2143.00000    0.43383
2143.50000    0.43065
2144.00000    0.42645
2144.50000    0.42148
2145.00000    0.41594
2145.50000    0.41007
2146.00000    0.40406
2146.50000    0.39807
2147.00000    0.39227
2147.50000    0.38677
2148.00000    0.38166
2148.50000    0.37699
2149.00000    0.37278
2149.50000    0.36900
2150.00000    0.36561
2150.50000    0.36250
2151.00000    0.35955
2151.50000    0.35660
2152.00000    0.35348
2152.50000    0.34997
2153.00000    0.34588
2153.50000    0.34100
2154.00000    0.33512
2154.50000    0.32807
2155.00000    0.31969
2155.50000    0.30986
2156.00000    0.29851
2156.50000    0.28563
2157.00000    0.27123
2157.50000    0.25540
2158.00000    0.23829
2158.50000    0.22007
2159.00000    0.20098
2159.50000    0.18128
2160.00000    0.16127
2160.50000    0.14125
2161.00000    0.12154
2161.50000    0.10244
2162.00000    0.08423
2162.50000    0.06718
2163.00000    0.05152
2163.50000    0.03743
2164.00000    0.02505
2164.50000    0.01449
2165.00000    0.00579
2165.50000   -0.00106
2166.00000   -0.00608
2166.50000   -0.00938
2167.00000   -0.01105
2167.50000   -0.01127
2168.00000   -0.01019
2168.50000   -0.00801
2169.00000   -0.00495
2169.50000   -0.00120
2170.00000    0.00300
2170.50000    0.00745
2171.00000    0.01194
2171.50000    0.01627
2172.00000    0.02028
2172.50000    0.02380
2173.00000    0.02671
2173.50000    0.02890
2174.00000    0.03032
2174.50000    0.03092
2175.00000    0.03072
2175.50000    0.02974
2176.00000    0.02806
2176.50000    0.02578
2177.00000    0.02303
2177.50000    0.01997
2178.00000    0.01675
2178.50000    0.01355
2179.00000    0.01053
2179.50000    0.00787
2180.00000    0.00570
2180.50000    0.00415
2181.00000    0.00331
2181.50000    0.00324
2182.00000    0.00396
2182.50000    0.00546
2183.00000    0.00770
2183.50000    0.01058
2184.00000    0.01400
2184.50000    0.01782
2185.00000    0.02188
2185.50000    0.02601
2186.00000    0.03003
2186.50000    0.03374
2187.00000    0.03697
2187.50000    0.03954
2188.00000    0.04127
2188.50000    0.04199
2189.00000    0.04157
2189.50000    0.03988
2190.00000    0.03681
2190.50000    0.03227
2191.00000    0.02621
2191.50000    0.01860
2192.00000    0.00944
2192.50000   -0.00122
2193.00000   -0.01330
2193.50000   -0.02667
2194.00000   -0.04117
2194.50000   -0.05658
2195.00000   -0.07265
2195.50000   -0.08909
2196.00000   -0.10558
2196.50000   -0.12177
2197.00000   -0.13731
2197.50000   -0.15182
2198.00000   -0.16495
2198.50000   -0.17638
2199.00000   -0.18581
2199.50000   -0.19298
2200.00000   -0.19771
2200.50000   -0.19987
2201.00000   -0.19940
2201.50000   -0.19632
2202.00000   -0.19070
2202.50000   -0.18271
2203.00000   -0.17254
2203.50000   -0.16047
2204.00000   -0.14678
2204.50000   -0.13179
2205.00000   -0.11584
2205.50000   -0.09926
2206.00000   -0.08235
2206.50000   -0.06540
2207.00000   -0.04865
2207.50000   -0.03232
2208.00000   -0.01657
2208.50000   -0.00151
2209.00000    0.01278
2209.50000    0.02626
2210.00000    0.03894
2210.50000    0.05082
2211.00000    0.06195
2211.50000    0.07237
2212.00000    0.08211
2212.50000    0.09120
2213.00000    0.09967
2213.50000    0.10750
2214.00000    0.11466
2214.50000    0.12110
2215.00000    0.12674
2215.50000    0.13149
2216.00000    0.13524
2216.50000    0.13786
2217.00000    0.13922
2217.50000    0.13922
2218.00000    0.13774
2218.50000    0.13469
2219.00000    0.13001
2219.50000    0.12368
2220.00000    0.11570
2220.50000    0.10614
2221.00000    0.09509
2221.50000    0.08271
2222.00000    0.06921
2222.50000    0.05483
2223.00000    0.03988
2223.50000    0.02468
2224.00000    0.00961
2224.50000   -0.00495
2225.00000   -0.01859
2225.50000   -0.03091
2226.00000   -0.04152
2226.50000   -0.05005
2227.00000   -0.05617
2227.50000   -0.05959
2228.00000   -0.06009
2228.50000   -0.05750
2229.00000   -0.05174
2229.50000   -0.04280
2230.00000   -0.03074
2230.50000   -0.01570
2231.00000    0.00211
2231.50000    0.02240
2232.00000    0.04487
2232.50000    0.06913
2233.00000    0.09480
2233.50000    0.12146
2234.00000    0.14872
2234.50000    0.17617
2235.00000    0.20345
2235.50000    0.23023
2236.00000    0.25621
2236.50000    0.28116
2237.00000    0.30486
2237.50000    0.32717
2238.00000    0.34800
2238.50000    0.36726
2239.00000    0.38491
2239.50000    0.40095
2240.00000    0.41536
2240.50000    0.42813
2241.00000    0.43924
2241.50000    0.44868
2242.00000    0.45640
2242.50000    0.46233
2243.00000    0.46639
2243.50000    0.46847
2244.00000    0.46845
2244.50000    0.46622
2245.00000    0.46164
2245.50000    0.45460
2246.00000    0.44502
2246.50000    0.43283
2247.00000    0.41800
2247.50000    0.40056
2248.00000    0.38057
2248.50000    0.35817
2249.00000    0.33353
2249.50000    0.30688
2250.00000    0.27849
2250.50000    0.24870
2251.00000    0.21784
2251.50000    0.18631
2252.00000    0.15448
2252.50000    0.12275
2253.00000    0.09151
2253.50000    0.06111
2254.00000    0.03189
2254.50000    0.00416
2255.00000   -0.02182
2255.50000   -0.04584
2256.00000   -0.06771
2256.50000   -0.08732
2257.00000   -0.10458
2257.50000   -0.11944
2258.00000   -0.13189
2258.50000   -0.14197
2259.00000   -0.14971
2259.50000   -0.15520
2260.00000   -0.15851
2260.50000   -0.15975
2261.00000   -0.15903
2261.50000   -0.15646
2262.00000   -0.15217
2262.50000   -0.14627
2263.00000   -0.13890
2263.50000   -0.13019
2264.00000   -0.12029
2264.50000   -0.10936
2265.00000   -0.09755
2265.50000   -0.08505
2266.00000   -0.07205
2266.50000   -0.05876
2267.00000   -0.04539
2267.50000   -0.03218
2268.00000   -0.01936
2268.50000   -0.00718
2269.00000    0.00413
2269.50000    0.01435
2270.00000    0.02327
2270.50000    0.03069
2271.00000    0.03649
2271.50000    0.04055
2272.00000    0.04281
2272.50000    0.04328
2273.00000    0.04201
2273.50000    0.03912
2274.00000    0.03478
2274.50000    0.02922
2275.00000    0.02273
2275.50000    0.01562
2276.00000    0.00824
2276.50000    0.00095
2277.00000   -0.00588
2277.50000   -0.01190
2278.00000   -0.01679
2278.50000   -0.02027
2279.00000   -0.02212
2279.50000   -0.02220
2280.00000   -0.02043
2280.50000   -0.01682
2281.00000   -0.01146
2281.50000   -0.00452
2282.00000    0.00376
2282.50000    0.01306
2283.00000    0.02303
2283.50000    0.03326
2284.00000    0.04334
2284.50000    0.05285
2285.00000    0.06138
2285.50000    0.06856
2286.00000    0.07405
2286.50000    0.07758
2287.00000    0.07894
2287.50000    0.07800
2288.00000    0.07469
2288.50000    0.06901
2289.00000    0.06106
2289.50000    0.05097
2290.00000    0.03895
2290.50000    0.02524
2291.00000    0.01014
2291.50000   -0.00605
2292.00000   -0.02300
2292.50000   -0.04037
2293.00000   -0.05781
2293.50000   -0.07499
2294.00000   -0.09158
2294.50000   -0.10728
2295.00000   -0.12179
2295.50000   -0.13485
2296.00000   -0.14619
2296.50000   -0.15559
2297.00000   -0.16287
2297.50000   -0.16784
2298.00000   -0.17037
2298.50000   -0.17037
2299.00000   -0.16776
2299.50000   -0.16254
2300.00000   -0.15474
2300.50000   -0.14442
2301.00000   -0.13171
2301.50000   -0.11679
2302.00000   -0.09987
2302.50000   -0.08123
2303.00000   -0.06116
2303.50000   -0.03998
2304.00000   -0.01806
2304.50000    0.00425
2305.00000    0.02658
2305.50000    0.04858
2306.00000    0.06990
2306.50000    0.09025
2307.00000    0.10936
2307.50000    0.12700
2308.00000    0.14300
2308.50000    0.15723
2309.00000    0.16962
2309.50000    0.18015
2310.00000    0.18883
2310.50000    0.19572
2311.00000    0.20092
2311.50000    0.20455
2312.00000    0.20673
2312.50000    0.20763
2313.00000    0.20737
2313.50000    0.20610
2314.00000    0.20396
2314.50000    0.20103
2315.00000    0.19743
2315.50000    0.19320
2316.00000    0.18839
2316.50000    0.18302
2317.00000    0.17708
2317.50000    0.17054
2318.00000    0.16335
2318.50000    0.15546
2319.00000    0.14680
2319.50000    0.13730
2320.00000    0.12690
2320.50000    0.11553
2321.00000    0.10316
2321.50000    0.08975
2322.00000    0.07531
2322.50000    0.05986
2323.00000    0.04347
2323.50000    0.02621
2324.00000    0.00820
2324.50000   -0.01039
2325.00000   -0.02940
2325.50000   -0.04859
2326.00000   -0.06775
2326.50000   -0.08660
2327.00000   -0.10488
2327.50000   -0.12229
2328.00000   -0.13856
2328.50000   -0.15337
2329.00000   -0.16645
2329.50000   -0.17751
2330.00000   -0.18627
2330.50000   -0.19250
2331.00000   -0.19595
2331.50000   -0.19643
2332.00000   -0.19375
2332.50000   -0.18778
2333.00000   -0.17842
2333.50000   -0.16560
2334.00000   -0.14933
2334.50000   -0.12965
2335.00000   -0.10669
2335.50000   -0.08062
2336.00000   -0.05170
2336.50000   -0.02026
2337.00000    0.01329
2337.50000    0.04848
2338.00000    0.08475
2338.50000    0.12151
2339.00000    0.15810
2339.50000    0.19383
2340.00000    0.22799
2340.50000    0.25990
2341.00000    0.28888
2341.50000    0.31431
2342.00000    0.33564
2342.50000    0.35243
2343.00000    0.36434
2343.50000    0.37114
2344.00000    0.37275
2344.50000    0.36924
2345.00000    0.36080
2345.50000    0.34776
2346.00000    0.33056
2346.50000    0.30974
2347.00000    0.28592
2347.50000    0.25978
2348.00000    0.23200
2348.50000    0.20328
2349.00000    0.17430
2349.50000    0.14565
2350.00000    0.11790
2350.50000    0.09150
2351.00000    0.06681
2351.50000    0.04410
2352.00000    0.02352
2352.50000    0.00513
2353.00000   -0.01110
2353.50000   -0.02526
2354.00000   -0.03753
2354.50000   -0.04811
2355.00000   -0.05725
2355.50000   -0.06518
2356.00000   -0.07216
2356.50000   -0.07840
2357.00000   -0.08410
2357.50000   -0.08941
2358.00000   -0.09445
2358.50000   -0.09926
2359.00000   -0.10387
2359.50000   -0.10824
2360.00000   -0.11229
2360.50000   -0.11591
2361.00000   -0.11897
2361.50000   -0.12131
2362.00000   -0.12277
2362.50000   -0.12317
2363.00000   -0.12239
2363.50000   -0.12028
2364.00000   -0.11675
2364.50000   -0.11174
2365.00000   -0.10524
2365.50000   -0.09728
2366.00000   -0.08794
2366.50000   -0.07736
2367.00000   -0.06573
2367.50000   -0.05327
2368.00000   -0.04024
2368.50000   -0.02692
2369.00000   -0.01361
2369.50000   -0.00060
2370.00000    0.01183
2370.50000    0.02343
2371.00000    0.03400
2371.50000    0.04339
2372.00000    0.05152
2372.50000    0.05837
2373.00000    0.06400
2373.50000    0.06852
2374.00000    0.07212
2374.50000    0.07504
2375.00000    0.07755
2375.50000    0.07993
2376.00000    0.08248
2376.50000    0.08546
2377.00000    0.08910
2377.50000    0.09359
2378.00000    0.09903
2378.50000    0.10545
2379.00000    0.11278
2379.50000    0.12090
2380.00000    0.12958
2380.50000    0.13853
2381.00000    0.14740
2381.50000    0.15582
2382.00000    0.16339
2382.50000    0.16970
2383.00000    0.17438
2383.50000    0.17712
2384.00000    0.17763
2384.50000    0.17571
2385.00000    0.17126
2385.50000    0.16424
2386.00000    0.15470
2386.50000    0.14275
2387.00000    0.12860
2387.50000    0.11249
2388.00000    0.09469
2388.50000    0.07554
2389.00000    0.05533
2389.50000    0.03439
2390.00000    0.01301
2390.50000   -0.00853
2391.00000   -0.03000
2391.50000   -0.05117
2392.00000   -0.07188
2392.50000   -0.09195
2393.00000   -0.11127
2393.50000   -0.12969
2394.00000   -0.14709
2394.50000   -0.16335
2395.00000   -0.17830
2395.50000   -0.19180
2396.00000   -0.20364
2396.50000   -0.21363
2397.00000   -0.22153
2397.50000   -0.22711
2398.00000   -0.23013
2398.50000   -0.23037
2399.00000   -0.22762
2399.50000   -0.22172
2400.00000   -0.21255
2400.50000   -0.20006
2401.00000   -0.18427
2401.50000   -0.16527
2402.00000   -0.14324
2402.50000   -0.11843
2403.00000   -0.09118
2403.50000   -0.06189
2404.00000   -0.03101
2404.50000    0.00095
2405.00000    0.03347
2405.50000    0.06600
2406.00000    0.09799
2406.50000    0.12893
2407.00000    0.15833
2407.50000    0.18574
2408.00000    0.21076
2408.50000    0.23306
2409.00000    0.25237
2409.50000    0.26848
2410.00000    0.28124
2410.50000    0.29055
2411.00000    0.29639
2411.50000    0.29876
2412.00000    0.29772
2412.50000    0.29337
2413.00000    0.28582
2413.50000    0.27523
2414.00000    0.26179
2414.50000    0.24570
2415.00000    0.22720
2415.50000    0.20655
2416.00000    0.18403
2416.50000    0.15997
2417.00000    0.13471
2417.50000    0.10862
2418.00000    0.08208
2418.50000    0.05551
2419.00000    0.02930
2419.50000    0.00388
2420.00000   -0.02037
2420.50000   -0.04307
2421.00000   -0.06388
2421.50000   -0.08252
2422.00000   -0.09875
2422.50000   -0.11242
2423.00000   -0.12341
2423.50000   -0.13170
2424.00000   -0.13733
2424.50000   -0.14040
2425.00000   -0.14108
2425.50000   -0.13955
2426.00000   -0.13606
2426.50000   -0.13085
2427.00000   -0.12416
2427.50000   -0.11623
2428.00000   -0.10728
2428.50000   -0.09749
2429.00000   -0.08702
2429.50000   -0.07597
2430.00000   -0.06442
2430.50000   -0.05243
2431.00000   -0.04002
2431.50000   -0.02721
2432.00000   -0.01403
2432.50000   -0.00050
2433.00000    0.01332
2433.50000    0.02734
2434.00000    0.04143
2434.50000    0.05544
2435.00000    0.06915
2435.50000    0.08235
2436.00000    0.09476
2436.50000    0.10612
2437.00000    0.11617
2437.50000    0.12467
2438.00000    0.13138
2438.50000    0.13616
2439.00000    0.13890
2439.50000    0.13955
2440.00000    0.13817
2440.50000    0.13487
2441.00000    0.12984
2441.50000    0.12336
2442.00000    0.11573
2442.50000    0.10733
2443.00000    0.09854
2443.50000    0.08978
2444.00000    0.08144
2444.50000    0.07388
2445.00000    0.06742
2445.50000    0.06232
2446.00000    0.05876
2446.50000    0.05684
2447.00000    0.05656
2447.50000    0.05783
2448.00000    0.06046
2448.50000    0.06418
2449.00000    0.06866
2449.50000    0.07346
2450.00000    0.07813
2450.50000    0.08219
2451.00000    0.08513
2451.50000    0.08646
2452.00000    0.08573
2452.50000    0.08256
2453.00000    0.07662
2453.50000    0.06770
2454.00000    0.05568
2454.50000    0.04058
2455.00000    0.02253
2455.50000    0.00181
2456.00000   -0.02121
2456.50000   -0.04602
2457.00000   -0.07202
2457.50000   -0.09855
2458.00000   -0.12487
2458.50000   -0.15025
2459.00000   -0.17393
2459.50000   -0.19522
2460.00000   -0.21348
2460.50000   -0.22814
2461.00000   -0.23876
2461.50000   -0.24504
2462.00000   -0.24679
2462.50000   -0.24399
2463.00000   -0.23675
2463.50000   -0.22531
2464.00000   -0.21004
2464.50000   -0.19142
2465.00000   -0.17000
2465.50000   -0.14638
2466.00000   -0.12121
2466.50000   -0.09512
2467.00000   -0.06877
2467.50000   -0.04273
2468.00000   -0.01757
2468.50000    0.00625
2469.00000    0.02832
2469.50000    0.04830
2470.00000    0.06596
2470.50000    0.08113
2471.00000    0.09371
2471.50000    0.10369
2472.00000    0.11109
2472.50000    0.11602
2473.00000    0.11863
2473.50000    0.11908
2474.00000    0.11761
2474.50000    0.11447
2475.00000    0.10993
2475.50000    0.10428
2476.00000    0.09784
2476.50000    0.09091
2477.00000    0.08381
2477.50000    0.07683
2478.00000    0.07026
2478.50000    0.06435
2479.00000    0.05931
2479.50000    0.05532
2480.00000    0.05248
2480.50000    0.05083
2481.00000    0.05036
2481.50000    0.05099
2482.00000    0.05256
2482.50000    0.05486
2483.00000    0.05762
2483.50000    0.06055
2484.00000    0.06331
2484.50000    0.06557
2485.00000    0.06700
2485.50000    0.06731
2486.00000    0.06622
2486.50000    0.06352
2487.00000    0.05909
2487.50000    0.05284
2488.00000    0.04479
2488.50000    0.03503
2489.00000    0.02371
2489.50000    0.01106
2490.00000   -0.00263
2490.50000   -0.01705
2491.00000   -0.03183
2491.50000   -0.04660
2492.00000   -0.06099
2492.50000   -0.07464
2493.00000   -0.08721
2493.50000   -0.09839
2494.00000   -0.10791
2494.50000   -0.11555
2495.00000   -0.12114
2495.50000   -0.12456
2496.00000   -0.12573
2496.50000   -0.12460
2497.00000   -0.12121
2497.50000   -0.11559
2498.00000   -0.10783
2498.50000   -0.09805
2499.00000   -0.08638
2499.50000   -0.07300
2500.00000   -0.05809
2500.50000   -0.04186
2501.00000   -0.02453
2501.50000   -0.00633
2502.00000    0.01250
2502.50000    0.03170
2503.00000    0.05102
2503.50000    0.07022
2504.00000    0.08905
2504.50000    0.10727
2505.00000    0.12465
2505.50000    0.14098
2506.00000    0.15609
2506.50000    0.16979
2507.00000    0.18194
2507.50000    0.19242
2508.00000    0.20113
2508.50000    0.20799
2509.00000    0.21293
2509.50000    0.21593
2510.00000    0.21694
2510.50000    0.21595
2511.00000    0.21297
2511.50000    0.20798
2512.00000    0.20102
2512.50000    0.19211
2513.00000    0.18128
2513.50000    0.16859
2514.00000    0.15410
2514.50000    0.13792
2515.00000    0.12015
2515.50000    0.10092
2516.00000    0.08041
2516.50000    0.05881
2517.00000    0.03634
2517.50000    0.01323
2518.00000   -0.01025
2518.50000   -0.03383
2519.00000   -0.05723
2519.50000   -0.08016
2520.00000   -0.10234
2520.50000   -0.12353
2521.00000   -0.14348
2521.50000   -0.16197
2522.00000   -0.17884
2522.50000   -0.19393
2523.00000   -0.20714
2523.50000   -0.21840
2524.00000   -0.22765
2524.50000   -0.23489
2525.00000   -0.24013
2525.50000   -0.24340
2526.00000   -0.24475
2526.50000   -0.24424
2527.00000   -0.24192
2527.50000   -0.23787
2528.00000   -0.23216
2528.50000   -0.22484
2529.00000   -0.21600
2529.50000   -0.20572
2530.00000   -0.19407
2530.50000   -0.18114
2531.00000   -0.16703
2531.50000   -0.15186
2532.00000   -0.13576
2532.50000   -0.11885
2533.00000   -0.10129
2533.50000   -0.08325
2534.00000   -0.06488
2534.50000   -0.04637
2535.00000   -0.02788
2535.50000   -0.00958
2536.00000    0.00837
2536.50000    0.02581
2537.00000    0.04261
2537.50000    0.05862
2538.00000    0.07375
2538.50000    0.08786
2539.00000    0.10087
2539.50000    0.11267
2540.00000    0.12318
2540.50000    0.13229
2541.00000    0.13990
2541.50000    0.14594
2542.00000    0.15030
2542.50000    0.15290
2543.00000    0.15366
2543.50000    0.15250
2544.00000    0.14939
2544.50000    0.14430
2545.00000    0.13726
2545.50000    0.12830
2546.00000    0.11752
2546.50000    0.10507
2547.00000    0.09113
2547.50000    0.07591
2548.00000    0.05969
2548.50000    0.04276
2549.00000    0.02544
2549.50000    0.00806
2550.00000   -0.00905
2550.50000   -0.02556
2551.00000   -0.04118
2551.50000   -0.05563
2552.00000   -0.06867
2552.50000   -0.08012
2553.00000   -0.08985
2553.50000   -0.09776
2554.00000   -0.10384
2554.50000   -0.10809
2555.00000   -0.11058
2555.50000   -0.11142
2556.00000   -0.11075
2556.50000   -0.10874
2557.00000   -0.10557
2557.50000   -0.10143
2558.00000   -0.09652
2558.50000   -0.09103
2559.00000   -0.08513
2559.50000   -0.07898
2560.00000   -0.07272
2560.50000   -0.06645
2561.00000   -0.06024
2561.50000   -0.05415
2562.00000   -0.04819
2562.50000   -0.04235
2563.00000   -0.03659
2563.50000   -0.03086
2564.00000   -0.02508
2564.50000   -0.01919
2565.00000   -0.01309
2565.50000   -0.00672
2566.00000    0.00000
2566.50000    0.00712
2567.00000    0.01465
2567.50000    0.02260
2568.00000    0.03095
2568.50000    0.03963
2569.00000    0.04857
2569.50000    0.05766
2570.00000    0.06678
2570.50000    0.07579
2571.00000    0.08454
2571.50000    0.09291
2572.00000    0.10075
2572.50000    0.10795
2573.00000    0.11442
2573.50000    0.12009
2574.00000    0.12494
2574.50000    0.12894
2575.00000    0.13211
2575.50000    0.13451
2576.00000    0.13619
2576.50000    0.13722
2577.00000    0.13769
2577.50000    0.13768
2578.00000    0.13725
2578.50000    0.13647
2579.00000    0.13538
2579.50000    0.13399
2580.00000    0.13231
2580.50000    0.13032
2581.00000    0.12797
2581.50000    0.12523
2582.00000    0.12202
2582.50000    0.11830
2583.00000    0.11400
2583.50000    0.10907
2584.00000    0.10349
2584.50000    0.09722
2585.00000    0.09026
2585.50000    0.08262
2586.00000    0.07434
2586.50000    0.06546
2587.00000    0.05603
2587.50000    0.04610
2588.00000    0.03575
2588.50000    0.02505
2589.00000    0.01404
2589.50000    0.00281
2590.00000   -0.00860
2590.50000   -0.02013
2591.00000   -0.03171
2591.50000   -0.04329
2592.00000   -0.05481
2592.50000   -0.06618
2593.00000   -0.07733
2593.50000   -0.08815
2594.00000   -0.09853
2594.50000   -0.10835
2595.00000   -0.11748
2595.50000   -0.12578
2596.00000   -0.13312
2596.50000   -0.13937
2597.00000   -0.14442
2597.50000   -0.14820
2598.00000   -0.15065
2598.50000   -0.15175
2599.00000   -0.15155
2599.50000   -0.15009
2600.00000   -0.14750
2600.50000   -0.14393
2601.00000   -0.13954
2601.50000   -0.13456
2602.00000   -0.12919
2602.50000   -0.12364
2603.00000   -0.11813
2603.50000   -0.11282
2604.00000   -0.10787
2604.50000   -0.10337
2605.00000   -0.09940
2605.50000   -0.09594
2606.00000   -0.09297
2606.50000   -0.09041
2607.00000   -0.08813
2607.50000   -0.08600
2608.00000   -0.08387
2608.50000   -0.08157
2609.00000   -0.07896
2609.50000   -0.07593
2610.00000   -0.07240
2610.50000   -0.06831
2611.00000   -0.06367
2611.50000   -0.05852
2612.00000   -0.05293
2612.50000   -0.04702
2613.00000   -0.04093
2613.50000   -0.03480
2614.00000   -0.02878
2614.50000   -0.02300
2615.00000   -0.01757
2615.50000   -0.01256
2616.00000   -0.00799
2616.50000   -0.00386
2617.00000   -0.00009
2617.50000    0.00343
2618.00000    0.00685
2618.50000    0.01035
2619.00000    0.01413
2619.50000    0.01839
2620.00000    0.02335
2620.50000    0.02919
2621.00000    0.03608
2621.50000    0.04415
2622.00000    0.05349
2622.50000    0.06414
2623.00000    0.07613
2623.50000    0.08942
2624.00000    0.10396
2624.50000    0.11967
2625.00000    0.13645
2625.50000    0.15421
2626.00000    0.17285
2626.50000    0.19228
2627.00000    0.21245
2627.50000    0.23331
2628.00000    0.25485
2628.50000    0.27707
2629.00000    0.30001
2629.50000    0.32372
2630.00000    0.34827
2630.50000    0.37374
2631.00000    0.40021
2631.50000    0.42775
2632.00000    0.45645
2632.50000    0.48634
2633.00000    0.51748
2633.50000    0.54988
2634.00000    0.58355
2634.50000    0.61846
2635.00000    0.65459
2635.50000    0.69187
2636.00000    0.73026
2636.50000    0.76969
2637.00000    0.81008
2637.50000    0.85137
2638.00000    0.89349
2638.50000    0.93638
2639.00000    0.97999
2639.50000    1.02430
2640.00000    1.06927
2640.50000    1.11491
2641.00000    1.16123
2641.50000    1.20824
2642.00000    1.25599
2642.50000    1.30455
2643.00000    1.35397
2643.50000    1.40436
2644.00000    1.45582
2644.50000    1.50844
2645.00000    1.56236
2645.50000    1.61771
2646.00000    1.67463
2646.50000    1.73326
2647.00000    1.79375
2647.50000    1.85624
2648.00000    1.92090
2648.50000    1.98788
2649.00000    2.05733
2649.50000    2.12940
2650.00000    2.20424
2650.50000    2.28200
2651.00000    2.36282
2651.50000    2.44685
2652.00000    2.53422
2652.50000    2.62507
2653.00000    2.71951
2653.50000    2.81767
2654.00000    2.91966
2654.50000    3.02557
2655.00000    3.13550
2655.50000    3.24952
2656.00000    3.36768
2656.50000    3.49003
2657.00000    3.61660
2657.50000    3.74739
2658.00000    3.88239
2658.50000    4.02158
2659.00000    4.16491
2659.50000    4.31231
2660.00000    4.46371
2660.50000    4.61899
2661.00000    4.77804
2661.50000    4.94072
2662.00000    5.10687
2662.50000    5.27632
2663.00000    5.44885
2663.50000    5.62424
2664.00000    5.80224
2664.50000    5.98256
2665.00000    6.16488
2665.50000    6.34886
2666.00000    6.53411
2666.50000    6.72022
2667.00000    6.90672
2667.50000    7.09313
2668.00000    7.27893
2668.50000    7.46356
2669.00000    7.64646
2669.50000    7.82702
2670.00000    8.00463
2670.50000    8.17865
2671.00000    8.34844
2671.50000    8.51336
2672.00000    8.67276
2672.50000    8.82599
2673.00000    8.97241
2673.50000    9.11141
2674.00000    9.24236
2674.50000    9.36466
2675.00000    9.47773
2675.50000    9.58101
2676.00000    9.67399
2676.50000    9.75616
2677.00000    9.82705
2677.50000    9.88627
2678.00000    9.93345
2678.50000    9.96827
2679.00000    9.99051
2679.50000   10.00000
2680.00000    9.99666
2680.50000    9.98049
2681.00000    9.95160
2681.50000    9.91018
2682.00000    9.85655
2682.50000    9.79109
2683.00000    9.71430
2683.50000    9.62679
2684.00000    9.52922
2684.50000    9.42233
2685.00000    9.30694
2685.50000    9.18389
2686.00000    9.05405
2686.50000    8.91831
2687.00000    8.77753
2687.50000    8.63255
2688.00000    8.48416
2688.50000    8.33308
2689.00000    8.17995
2689.50000    8.02534
2690.00000    7.86970
2690.50000    7.71340
2691.00000    7.55671
2691.50000    7.39984
2692.00000    7.24288
2692.50000    7.08590
2693.00000    6.92889
2693.50000    6.77184
2694.00000    6.61472
2694.50000    6.45750
2695.00000    6.30020
2695.50000    6.14285
2696.00000    5.98555
2696.50000    5.82845
2697.00000    5.67175
2697.50000    5.51571
2698.00000    5.36063
2698.50000    5.20686
2699.00000    5.05475
2699.50000    4.90468
2700.00000    4.75700
2700.50000    4.61204
2701.00000    4.47008
2701.50000    4.33137
2702.00000    4.19607
2702.50000    4.06428
2703.00000    3.93603
2703.50000    3.81129
2704.00000    3.68995
2704.50000    3.57188
2705.00000    3.45691
2705.50000    3.34484
2706.00000    3.23549
2706.50000    3.12867
2707.00000    3.02424
2707.50000    2.92210
2708.00000    2.82219
2708.50000    2.72450
2709.00000    2.62908
2709.50000    2.53603
2710.00000    2.44549
2710.50000    2.35761
2711.00000    2.27257
2711.50000    2.19054
2712.00000    2.11166
2712.50000    2.03605
2713.00000    1.96377
2713.50000    1.89482
2714.00000    1.82913
2714.50000    1.76655
2715.00000    1.70685
2715.50000    1.64973
2716.00000    1.59482
2716.50000    1.54170
2717.00000    1.48991
2717.50000    1.43897
2718.00000    1.38839
2718.50000    1.33769
2719.00000    1.28645
2719.50000    1.23429
2720.00000    1.18088
2720.50000    1.12602
2721.00000    1.06955
2721.50000    1.01147
2722.00000    0.95182
2722.50000    0.89078
2723.00000    0.82861
2723.50000    0.76563
2724.00000    0.70227
2724.50000    0.63896
2725.00000    0.57620
2725.50000    0.51449
2726.00000    0.45433
2726.50000    0.39620
2727.00000    0.34054
2727.50000    0.28777
2728.00000    0.23822
2728.50000    0.19220
2729.00000    0.14994
2729.50000    0.11163
2730.00000    0.07739
2730.50000    0.04730
2731.00000    0.02139
2731.50000   -0.00032
2732.00000   -0.01787
2732.50000   -0.03131
2733.00000   -0.04071
2733.50000   -0.04618
2734.00000   -0.04784
2734.50000   -0.04584
2735.00000   -0.04038
2735.50000   -0.03167
2736.00000   -0.02000
2736.50000   -0.00568
2737.00000    0.01090
2737.50000    0.02934
2738.00000    0.04916
2738.50000    0.06985
2739.00000    0.09088
2739.50000    0.11170
2740.00000    0.13177
2740.50000    0.15055
2741.00000    0.16758
2741.50000    0.18240
2742.00000    0.19465
2742.50000    0.20404
2743.00000    0.21037
2743.50000    0.21353
2744.00000    0.21349
2744.50000    0.21031
2745.00000    0.20413
2745.50000    0.19514
2746.00000    0.18359
2746.50000    0.16977
2747.00000    0.15398
2747.50000    0.13652
2748.00000    0.11771
2748.50000    0.09784
2749.00000    0.07718
2749.50000    0.05599
2750.00000    0.03450
2750.50000    0.01294
2751.00000   -0.00849
2751.50000   -0.02960
2752.00000   -0.05020
2752.50000   -0.07009
2753.00000   -0.08909
2753.50000   -0.10700
2754.00000   -0.12362
2754.50000   -0.13877
2755.00000   -0.15225
2755.50000   -0.16391
2756.00000   -0.17359
2756.50000   -0.18118
2757.00000   -0.18661
2757.50000   -0.18983
2758.00000   -0.19085
2758.50000   -0.18973
2759.00000   -0.18656
2759.50000   -0.18149
2760.00000   -0.17469
2760.50000   -0.16636
2761.00000   -0.15671
2761.50000   -0.14595
2762.00000   -0.13432
2762.50000   -0.12201
2763.00000   -0.10920
2763.50000   -0.09607
2764.00000   -0.08274
2764.50000   -0.06930
2765.00000   -0.05585
2765.50000   -0.04241
2766.00000   -0.02899
2766.50000   -0.01560
2767.00000   -0.00221
2767.50000    0.01124
2768.00000    0.02478
2768.50000    0.03848
2769.00000    0.05239
2769.50000    0.06656
2770.00000    0.08105
2770.50000    0.09587
2771.00000    0.11103
2771.50000    0.12652
2772.00000    0.14229
2772.50000    0.15826
2773.00000    0.17430
2773.50000    0.19027
2774.00000    0.20594
2774.50000    0.22108
2775.00000    0.23539
2775.50000    0.24855
2776.00000    0.26021
2776.50000    0.27000
2777.00000    0.27755
2777.50000    0.28250
2778.00000    0.28452
2778.50000    0.28332
2779.00000    0.27865
2779.50000    0.27035
2780.00000    0.25833
2780.50000    0.24259
2781.00000    0.22322
2781.50000    0.20042
2782.00000    0.17445
2782.50000    0.14567
2783.00000    0.11452
2783.50000    0.08149
2784.00000    0.04709
2784.50000    0.01189
2785.00000   -0.02354
2785.50000   -0.05864
2786.00000   -0.09285
2786.50000   -0.12566
2787.00000   -0.15658
2787.50000   -0.18518
2788.00000   -0.21106
2788.50000   -0.23388
2789.00000   -0.25335
2789.50000   -0.26922
2790.00000   -0.28130
2790.50000   -0.28945
2791.00000   -0.29355
2791.50000   -0.29356
2792.00000   -0.28945
2792.50000   -0.28124
2793.00000   -0.26902
2793.50000   -0.25288
2794.00000   -0.23298
2794.50000   -0.20951
2795.00000   -0.18272
2795.50000   -0.15287
2796.00000   -0.12029
2796.50000   -0.08531
2797.00000   -0.04831
2797.50000   -0.00969
2798.00000    0.03015
2798.50000    0.07076
2799.00000    0.11173
2799.50000    0.15261
2800.00000    0.19299
2800.50000    0.23243
2801.00000    0.27056
2801.50000    0.30697
2802.00000    0.34132
2802.50000    0.37328
2803.00000    0.40254
2803.50000    0.42883
2804.00000    0.45193
2804.50000    0.47164
2805.00000    0.48781
2805.50000    0.50033
2806.00000    0.50914
2806.50000    0.51423
2807.00000    0.51562
2807.50000    0.51340
2808.00000    0.50767
2808.50000    0.49860
2809.00000    0.48636
2809.50000    0.47119
2810.00000    0.45331
2810.50000    0.43299
2811.00000    0.41049
2811.50000    0.38607
2812.00000    0.36001
2812.50000    0.33257
2813.00000    0.30403
2813.50000    0.27465
2814.00000    0.24469
2814.50000    0.21442
2815.00000    0.18412
2815.50000    0.15407
2816.00000    0.12458
2816.50000    0.09596
2817.00000    0.06855
2817.50000    0.04269
2818.00000    0.01875
2818.50000   -0.00292
2819.00000   -0.02196
2819.50000   -0.03802
2820.00000   -0.05080
2820.50000   -0.06002
2821.00000   -0.06546
2821.50000   -0.06698
2822.00000   -0.06450
2822.50000   -0.05802
2823.00000   -0.04766
2823.50000   -0.03358
2824.00000   -0.01607
2824.50000    0.00453
2825.00000    0.02780
2825.50000    0.05326
2826.00000    0.08039
2826.50000    0.10864
2827.00000    0.13746
2827.50000    0.16629
2828.00000    0.19462
2828.50000    0.22195
2829.00000    0.24783
2829.50000    0.27188
2830.00000    0.29379
2830.50000    0.31328
2831.00000    0.33018
2831.50000    0.34437
2832.00000    0.35579
2832.50000    0.36446
2833.00000    0.37043
2833.50000    0.37384
2834.00000    0.37482
2834.50000    0.37358
2835.00000    0.37033
2835.50000    0.36530
2836.00000    0.35873
2836.50000    0.35088
2837.00000    0.34198
2837.50000    0.33225
2838.00000    0.32192
2838.50000    0.31117
2839.00000    0.30015
2839.50000    0.28900
2840.00000    0.27781
2840.50000    0.26663
2841.00000    0.25551
2841.50000    0.24444
2842.00000    0.23338
2842.50000    0.22230
2843.00000    0.21113
2843.50000    0.19977
2844.00000    0.18816
2844.50000    0.17621
2845.00000    0.16384
2845.50000    0.15099
2846.00000    0.13762
2846.50000    0.12370
2847.00000    0.10921
2847.50000    0.09420
2848.00000    0.07869
2848.50000    0.06275
2849.00000    0.04648
2849.50000    0.02998
2850.00000    0.01338
2850.50000   -0.00319
2851.00000   -0.01957
2851.50000   -0.03560
2852.00000   -0.05111
2852.50000   -0.06592
2853.00000   -0.07985
2853.50000   -0.09272
2854.00000   -0.10435
2854.50000   -0.11456
2855.00000   -0.12319
2855.50000   -0.13007
2856.00000   -0.13507
2856.50000   -0.13805
2857.00000   -0.13892
2857.50000   -0.13761
2858.00000   -0.13408
2858.50000   -0.12833
2859.00000   -0.12039
2859.50000   -0.11035
2860.00000   -0.09832
2860.50000   -0.08446
2861.00000   -0.06896
2861.50000   -0.05205
2862.00000   -0.03395
2862.50000   -0.01494
2863.00000    0.00472
2863.50000    0.02479
2864.00000    0.04499
2864.50000    0.06512
2865.00000    0.08495
2865.50000    0.10433
2866.00000    0.12312
2866.50000    0.14120
2867.00000    0.15852
2867.50000    0.17501
2868.00000    0.19065
2868.50000    0.20543
2869.00000    0.21934
2869.50000    0.23237
2870.00000    0.24450
2870.50000    0.25569
2871.00000    0.26589
2871.50000    0.27502
2872.00000    0.28298
2872.50000    0.28966
2873.00000    0.29493
2873.50000    0.29865
2874.00000    0.30068
2874.50000    0.30089
2875.00000    0.29918
2875.50000    0.29547
2876.00000    0.28969
2876.50000    0.28184
2877.00000    0.27195
2877.50000    0.26007
2878.00000    0.24632
2878.50000    0.23083
2879.00000    0.21377
2879.50000    0.19533
2880.00000    0.17572
2880.50000    0.15515
2881.00000    0.13384
2881.50000    0.11198
2882.00000    0.08980
2882.50000    0.06747
2883.00000    0.04517
2883.50000    0.02306
2884.00000    0.00131
2884.50000   -0.01995
2885.00000   -0.04056
2885.50000   -0.06039
2886.00000   -0.07929
2886.50000   -0.09713
2887.00000   -0.11376
2887.50000   -0.12905
2888.00000   -0.14286
2888.50000   -0.15507
2889.00000   -0.16556
2889.50000   -0.17424
2890.00000   -0.18102
2890.50000   -0.18583
2891.00000   -0.18865
2891.50000   -0.18946
2892.00000   -0.18824
2892.50000   -0.18504
2893.00000   -0.17987
2893.50000   -0.17279
2894.00000   -0.16386
2894.50000   -0.15314
2895.00000   -0.14073
2895.50000   -0.12672
2896.00000   -0.11120
2896.50000   -0.09432
2897.00000   -0.07623
2897.50000   -0.05713
2898.00000   -0.03724
2898.50000   -0.01683
2899.00000    0.00376
2899.50000    0.02418
2900.00000    0.04402
2900.50000    0.06283
2901.00000    0.08016
2901.50000    0.09555
2902.00000    0.10857
2902.50000    0.11881
2903.00000    0.12595
2903.50000    0.12973
2904.00000    0.13000
2904.50000    0.12674
2905.00000    0.12005
2905.50000    0.11014
2906.00000    0.09735
2906.50000    0.08213
2907.00000    0.06502
2907.50000    0.04660
2908.00000    0.02753
2908.50000    0.00842
2909.00000   -0.01011
2909.50000   -0.02752
2910.00000   -0.04332
2910.50000   -0.05715
2911.00000   -0.06877
2911.50000   -0.07804
2912.00000   -0.08495
2912.50000   -0.08962
2913.00000   -0.09225
2913.50000   -0.09312
2914.00000   -0.09258
2914.50000   -0.09099
2915.00000   -0.08874
2915.50000   -0.08619
2916.00000   -0.08364
2916.50000   -0.08137
2917.00000   -0.07956
2917.50000   -0.07832
2918.00000   -0.07770
2918.50000   -0.07764
2919.00000   -0.07804
2919.50000   -0.07875
2920.00000   -0.07955
2920.50000   -0.08022
2921.00000   -0.08051
2921.50000   -0.08018
2922.00000   -0.07901
2922.50000   -0.07678
2923.00000   -0.07334
2923.50000   -0.06855
2924.00000   -0.06234
2924.50000   -0.05466
2925.00000   -0.04553
2925.50000   -0.03502
2926.00000   -0.02321
2926.50000   -0.01026
2927.00000    0.00367
2927.50000    0.01835
2928.00000    0.03357
2928.50000    0.04907
2929.00000    0.06460
2929.50000    0.07990
2930.00000    0.09471
2930.50000    0.10879
2931.00000    0.12190
2931.50000    0.13383
2932.00000    0.14440
2932.50000    0.15344
2933.00000    0.16084
2933.50000    0.16650
2934.00000    0.17033
2934.50000    0.17231
2935.00000    0.17240
2935.50000    0.17063
2936.00000    0.16700
2936.50000    0.16155
2937.00000    0.15435
2937.50000    0.14546
2938.00000    0.13496
2938.50000    0.12296
2939.00000    0.10957
2939.50000    0.09493
2940.00000    0.07920
2940.50000    0.06258
2941.00000    0.04527
2941.50000    0.02752
2942.00000    0.00960
2942.50000   -0.00821
2943.00000   -0.02560
2943.50000   -0.04225
2944.00000   -0.05787
2944.50000   -0.07214
2945.00000   -0.08480
2945.50000   -0.09559
2946.00000   -0.10433
2946.50000   -0.11087
2947.00000   -0.11513
2947.50000   -0.11709
2948.00000   -0.11680
2948.50000   -0.11437
2949.00000   -0.10998
2949.50000   -0.10386
2950.00000   -0.09627
2950.50000   -0.08751
2951.00000   -0.07789
2951.50000   -0.06774
2952.00000   -0.05735
2952.50000   -0.04701
2953.00000   -0.03699
2953.50000   -0.02749
2954.00000   -0.01870
2954.50000   -0.01074
2955.00000   -0.00370
2955.50000    0.00239
2956.00000    0.00753
2956.50000    0.01176
2957.00000    0.01515
2957.50000    0.01780
2958.00000    0.01982
2958.50000    0.02133
2959.00000    0.02247
2959.50000    0.02335
2960.00000    0.02411
2960.50000    0.02485
2961.00000    0.02568
2961.50000    0.02666
2962.00000    0.02787
2962.50000    0.02932
2963.00000    0.03104
2963.50000    0.03300
2964.00000    0.03515
2964.50000    0.03742
2965.00000    0.03973
2965.50000    0.04194
2966.00000    0.04392
2966.50000    0.04553
2967.00000    0.04663
2967.50000    0.04707
2968.00000    0.04674
2968.50000    0.04554
2969.00000    0.04341
2969.50000    0.04035
2970.00000    0.03637
2970.50000    0.03159
2971.00000    0.02615
2971.50000    0.02025
2972.00000    0.01415
2972.50000    0.00814
2973.00000    0.00254
2973.50000   -0.00231
2974.00000   -0.00608
2974.50000   -0.00845
2975.00000   -0.00916
2975.50000   -0.00798
2976.00000   -0.00476
2976.50000    0.00058
2977.00000    0.00802
2977.50000    0.01747
2978.00000    0.02875
2978.50000    0.04156
2979.00000    0.05558
2979.50000    0.07040
2980.00000    0.08558
2980.50000    0.10063
2981.00000    0.11508
2981.50000    0.12845
2982.00000    0.14030
2982.50000    0.15022
2983.00000    0.15786
2983.50000    0.16292
2984.00000    0.16518
2984.50000    0.16451
2985.00000    0.16083
2985.50000    0.15416
2986.00000    0.14458
2986.50000    0.13224
2987.00000    0.11737
2987.50000    0.10025
2988.00000    0.08120
2988.50000    0.06060
2989.00000    0.03886
2989.50000    0.01639
2990.00000   -0.00635
2990.50000   -0.02893
2991.00000   -0.05093
2991.50000   -0.07196
2992.00000   -0.09164
2992.50000   -0.10966
2993.00000   -0.12577
2993.50000   -0.13978
2994.00000   -0.15157
2994.50000   -0.16109
2995.00000   -0.16839
2995.50000   -0.17357
2996.00000   -0.17680
2996.50000   -0.17830
2997.00000   -0.17836
2997.50000   -0.17727
2998.00000   -0.17533
2998.50000   -0.17283
2999.00000   -0.17003
2999.50000   -0.16712
