1200.50000   -0.16121
1201.00000   -0.11852
1201.50000   -0.07581
1202.00000   -0.03307
1202.50000    0.00967
1203.00000    0.05235
1203.50000    0.09490
1204.00000    0.13719
1204.50000    0.17906
1205.00000    0.22031
1205.50000    0.26072
1206.00000    0.30004
1206.50000    0.33800
1207.00000    0.37432
1207.50000    0.40874
1208.00000    0.44099
1208.50000    0.47082
1209.00000    0.49801
1209.50000    0.52238
1210.00000    0.54380
1210.50000    0.56216
1211.00000    0.57743
1211.50000    0.58962
1212.00000    0.59880
1212.50000    0.60507
1213.00000    0.60857
1213.50000    0.60951
1214.00000    0.60807
1214.50000    0.60451
1215.00000    0.59904
1215.50000    0.59190
1216.00000    0.58332
1216.50000    0.57349
1217.00000    0.56260
1217.50000    0.55079
1218.00000    0.53815
1218.50000    0.52477
1219.00000    0.51065
1219.50000    0.49579
1220.00000    0.48012
1220.50000    0.46358
1221.00000    0.44605
1221.50000    0.42741
1222.00000    0.40753
1222.50000    0.38628
1223.00000    0.36355
1223.50000    0.33924
1224.00000    0.31326
1224.50000    0.28558
1225.00000    0.25620
1225.50000    0.22517
1226.00000    0.19256
1226.50000    0.15851
1227.00000    0.12321
1227.50000    0.08689
1228.00000    0.04981
1228.50000    0.01229
1229.00000   -0.02533
1229.50000   -0.06269
1230.00000   -0.09941
1230.50000   -0.13510
1231.00000   -0.16936
1231.50000   -0.20181
1232.00000   -0.23208
1232.50000   -0.25983
1233.00000   -0.28474
1233.50000   -0.30654
1234.00000   -0.32498
1234.50000   -0.33989
1235.00000   -0.35112
1235.50000   -0.35860
1236.00000   -0.36231
1236.50000   -0.36229
1237.00000   -0.35861
1237.50000   -0.35142
1238.00000   -0.34092
1238.50000   -0.32733
1239.00000   -0.31093
1239.50000   -0.29201
1240.00000   -0.27091
1240.50000   -0.24796
1241.00000   -0.22352
1241.50000   -0.19793
1242.00000   -0.17154
1242.50000   -0.14468
1243.00000   -0.11766
1243.50000   -0.09076
1244.00000   -0.06424
1244.50000   -0.03832
1245.00000   -0.01318
1245.50000    0.01102
1246.00000    0.03417
1246.50000    0.05618
1247.00000    0.07699
1247.50000    0.09656
1248.00000    0.11487
1248.50000    0.13192
1249.00000    0.14771
1249.50000    0.16225
1250.00000    0.17556
1250.50000    0.18764
1251.00000    0.19851
1251.50000    0.20817
1252.00000    0.21661
1252.50000    0.22385
1253.00000    0.22986
1253.50000    0.23466
1254.00000    0.23823
1254.50000    0.24059
1255.00000    0.24176
1255.50000    0.24175
1256.00000    0.24061
1256.50000    0.23840
1257.00000    0.23517
1257.50000    0.23100
1258.00000    0.22598
1258.50000    0.22020
1259.00000    0.21375
1259.50000    0.20672
1260.00000    0.19919
1260.50000    0.19124
1261.00000    0.18293
1261.50000    0.17429
1262.00000    0.16534
1262.50000    0.15609
1263.00000    0.14651
1263.50000    0.13656
1264.00000    0.12619
1264.50000    0.11535
1265.00000    0.10395
1265.50000    0.09194
1266.00000    0.07927
1266.50000    0.06589
1267.00000    0.05179
1267.50000    0.03698
1268.00000    0.02150
1268.50000    0.00543
1269.00000   -0.01112
1269.50000   -0.02798
1270.00000   -0.04500
1270.50000   -0.06194
1271.00000   -0.07859
1271.50000   -0.09470
1272.00000   -0.11003
1272.50000   -0.12433
1273.00000   -0.13738
1273.50000   -0.14898
1274.00000   -0.15895
1274.50000   -0.16716
1275.00000   -0.17353
1275.50000   -0.17800
1276.00000   -0.18060
1276.50000   -0.18136
1277.00000   -0.18041
1277.50000   -0.17786
1278.00000   -0.17390
1278.50000   -0.16873
1279.00000   -0.16256
1279.50000   -0.15560
1280.00000   -0.14807
1280.50000   -0.14017
1281.00000   -0.13207
1281.50000   -0.12393
1282.00000   -0.11587
1282.50000   -0.10797
1283.00000   -0.10028
1283.50000   -0.09282
1284.00000   -0.08556
1284.50000   -0.07847
1285.00000   -0.07147
1285.50000   -0.06450
1286.00000   -0.05747
1286.50000   -0.05031
1287.00000   -0.04294
1287.50000   -0.03534
1288.00000   -0.02747
1288.50000   -0.01935
1289.00000   -0.01100
1289.50000   -0.00250
1290.00000    0.00606
1290.50000    0.01456
1291.00000    0.02286
1291.50000    0.03081
1292.00000    0.03823
1292.50000    0.04497
1293.00000    0.05088
1293.50000    0.05581
1294.00000    0.05966
1294.50000    0.06233
1295.00000    0.06377
1295.50000    0.06394
1296.00000    0.06288
1296.50000    0.06060
1297.00000    0.05720
1297.50000    0.05276
1298.00000    0.04740
1298.50000    0.04124
1299.00000    0.03444
1299.50000    0.02711
1300.00000    0.01942
1300.50000    0.01147
1301.00000    0.00340
1301.50000   -0.00470
1302.00000   -0.01272
1302.50000   -0.02060
1303.00000   -0.02827
1303.50000   -0.03566
1304.00000   -0.04273
1304.50000   -0.04943
1305.00000   -0.05570
1305.50000   -0.06149
1306.00000   -0.06675
1306.50000   -0.07139
1307.00000   -0.07534
1307.50000   -0.07853
1308.00000   -0.08086
1308.50000   -0.08225
1309.00000   -0.08262
1309.50000   -0.08190
1310.00000   -0.08004
1310.50000   -0.07700
1311.00000   -0.07279
1311.50000   -0.06744
1312.00000   -0.06101
1312.50000   -0.05361
1313.00000   -0.04537
1313.50000   -0.03646
1314.00000   -0.02708
1314.50000   -0.01744
1315.00000   -0.00776
1315.50000    0.00171
1316.00000    0.01076
1316.50000    0.01918
1317.00000    0.02679
1317.50000    0.03345
1318.00000    0.03905
1318.50000    0.04353
1319.00000    0.04688
1319.50000    0.04916
1320.00000    0.05044
1320.50000    0.05087
1321.00000    0.05065
1321.50000    0.04999
1322.00000    0.04913
1322.50000    0.04837
1323.00000    0.04797
1323.50000    0.04824
1324.00000    0.04948
1324.50000    0.05198
1325.00000    0.05603
1325.50000    0.06193
1326.00000    0.06994
1326.50000    0.08034
1327.00000    0.09340
1327.50000    0.10939
1328.00000    0.12857
1328.50000    0.15121
1329.00000    0.17757
1329.50000    0.20791
1330.00000    0.24248
1330.50000    0.28152
1331.00000    0.32525
1331.50000    0.37384
1332.00000    0.42744
1332.50000    0.48612
1333.00000    0.54987
1333.50000    0.61862
1334.00000    0.69217
1334.50000    0.77024
1335.00000    0.85242
1335.50000    0.93818
1336.00000    1.02687
1336.50000    1.11775
1337.00000    1.20995
1337.50000    1.30252
1338.00000    1.39446
1338.50000    1.48469
1339.00000    1.57215
1339.50000    1.65577
1340.00000    1.73453
1340.50000    1.80749
1341.00000    1.87380
1341.50000    1.93273
1342.00000    1.98371
1342.50000    2.02630
1343.00000    2.06026
1343.50000    2.08551
1344.00000    2.10215
1344.50000    2.11043
1345.00000    2.11078
1345.50000    2.10375
1346.00000    2.09002
1346.50000    2.07035
1347.00000    2.04558
1347.50000    2.01658
1348.00000    1.98421
1348.50000    1.94934
1349.00000    1.91278
1349.50000    1.87526
1350.00000    1.83746
1350.50000    1.79993
1351.00000    1.76311
1351.50000    1.72736
1352.00000    1.69289
1352.50000    1.65980
1353.00000    1.62810
1353.50000    1.59769
1354.00000    1.56838
1354.50000    1.53993
1355.00000    1.51203
1355.50000    1.48431
1356.00000    1.45641
1356.50000    1.42795
1357.00000    1.39856
1357.50000    1.36789
1358.00000    1.33562
1358.50000    1.30150
1359.00000    1.26531
1359.50000    1.22691
1360.00000    1.18621
1360.50000    1.14321
1361.00000    1.09796
1361.50000    1.05058
1362.00000    1.00127
1362.50000    0.95026
1363.00000    0.89787
1363.50000    0.84441
1364.00000    0.79026
1364.50000    0.73581
1365.00000    0.68145
1365.50000    0.62758
1366.00000    0.57456
1366.50000    0.52275
1367.00000    0.47247
1367.50000    0.42399
1368.00000    0.37753
1368.50000    0.33328
1369.00000    0.29135
1369.50000    0.25183
1370.00000    0.21473
1370.50000    0.18004
1371.00000    0.14771
1371.50000    0.11764
1372.00000    0.08973
1372.50000    0.06387
1373.00000    0.03993
1373.50000    0.01779
1374.00000   -0.00264
1374.50000   -0.02147
1375.00000   -0.03876
1375.50000   -0.05456
1376.00000   -0.06890
1376.50000   -0.08178
1377.00000   -0.09320
1377.50000   -0.10314
1378.00000   -0.11158
1378.50000   -0.11849
1379.00000   -0.12385
1379.50000   -0.12767
1380.00000   -0.12994
1380.50000   -0.13071
1381.00000   -0.13003
1381.50000   -0.12798
1382.00000   -0.12465
1382.50000   -0.12017
1383.00000   -0.11469
1383.50000   -0.10837
1384.00000   -0.10136
1384.50000   -0.09385
1385.00000   -0.08600
1385.50000   -0.07799
1386.00000   -0.06997
1386.50000   -0.06210
1387.00000   -0.05451
1387.50000   -0.04731
1388.00000   -0.04061
1388.50000   -0.03450
1389.00000   -0.02906
1389.50000   -0.02435
1390.00000   -0.02042
1390.50000   -0.01730
1391.00000   -0.01504
1391.50000   -0.01366
1392.00000   -0.01316
1392.50000   -0.01356
1393.00000   -0.01486
1393.50000   -0.01702
1394.00000   -0.02003
1394.50000   -0.02382
1395.00000   -0.02834
1395.50000   -0.03349
1396.00000   -0.03917
1396.50000   -0.04523
1397.00000   -0.05152
1397.50000   -0.05788
1398.00000   -0.06411
1398.50000   -0.07002
1399.00000   -0.07541
1399.50000   -0.08008
1400.00000   -0.08384
1400.50000   -0.08650
1401.00000   -0.08791
1401.50000   -0.08794
1402.00000   -0.08649
1402.50000   -0.08349
1403.00000   -0.07893
1403.50000   -0.07281
1404.00000   -0.06519
1404.50000   -0.05616
1405.00000   -0.04585
1405.50000   -0.03439
1406.00000   -0.02198
1406.50000   -0.00879
1407.00000    0.00496
1407.50000    0.01907
1408.00000    0.03333
1408.50000    0.04753
1409.00000    0.06147
1409.50000    0.07498
1410.00000    0.08787
1410.50000    0.10001
1411.00000    0.11126
1411.50000    0.12149
1412.00000    0.13063
1412.50000    0.13858
1413.00000    0.14528
1413.50000    0.15068
1414.00000    0.15476
1414.50000    0.15747
1415.00000    0.15882
1415.50000    0.15880
1416.00000    0.15741
1416.50000    0.15467
1417.00000    0.15059
1417.50000    0.14521
1418.00000    0.13856
1418.50000    0.13067
1419.00000    0.12160
1419.50000    0.11139
1420.00000    0.10009
1420.50000    0.08778
1421.00000    0.07452
1421.50000    0.06038
1422.00000    0.04544
1422.50000    0.02980
1423.00000    0.01355
1423.50000   -0.00320
1424.00000   -0.02033
1424.50000   -0.03769
1425.00000   -0.05513
1425.50000   -0.07248
1426.00000   -0.08956
1426.50000   -0.10617
1427.00000   -0.12207
1427.50000   -0.13705
1428.00000   -0.15085
1428.50000   -0.16324
1429.00000   -0.17397
1429.50000   -0.18280
1430.00000   -0.18952
1430.50000   -0.19393
1431.00000   -0.19588
1431.50000   -0.19524
1432.00000   -0.19195
1432.50000   -0.18600
1433.00000   -0.17744
1433.50000   -0.16638
1434.00000   -0.15300
1434.50000   -0.13753
1435.00000   -0.12026
1435.50000   -0.10154
1436.00000   -0.08174
1436.50000   -0.06127
1437.00000   -0.04055
1437.50000   -0.02000
1438.00000   -0.00005
1438.50000    0.01891
1439.00000    0.03654
1439.50000    0.05253
1440.00000    0.06663
1440.50000    0.07867
1441.00000    0.08853
1441.50000    0.09617
1442.00000    0.10163
1442.50000    0.10502
1443.00000    0.10649
1443.50000    0.10626
1444.00000    0.10458
1444.50000    0.10174
1445.00000    0.09804
1445.50000    0.09381
1446.00000    0.08934
1446.50000    0.08494
1447.00000    0.08088
1447.50000    0.07741
1448.00000    0.07472
1448.50000    0.07299
1449.00000    0.07232
1449.50000    0.07279
1450.00000    0.07441
1450.50000    0.07716
1451.00000    0.08096
1451.50000    0.08570
1452.00000    0.09122
1452.50000    0.09733
1453.00000    0.10382
1453.50000    0.11043
1454.00000    0.11693
1454.50000    0.12303
1455.00000    0.12847
1455.50000    0.13298
1456.00000    0.13631
1456.50000    0.13822
1457.00000    0.13851
1457.50000    0.13700
1458.00000    0.13355
1458.50000    0.12808
1459.00000    0.12055
1459.50000    0.11099
1460.00000    0.09946
1460.50000    0.08611
1461.00000    0.07112
1461.50000    0.05473
1462.00000    0.03723
1462.50000    0.01894
1463.00000    0.00020
1463.50000   -0.01864
1464.00000   -0.03721
1464.50000   -0.05515
1465.00000   -0.07215
1465.50000   -0.08790
1466.00000   -0.10215
1466.50000   -0.11469
1467.00000   -0.12537
1467.50000   -0.13410
1468.00000   -0.14083
1468.50000   -0.14559
1469.00000   -0.14844
1469.50000   -0.14950
1470.00000   -0.14893
1470.50000   -0.14689
1471.00000   -0.14359
1471.50000   -0.13922
1472.00000   -0.13399
1472.50000   -0.12810
1473.00000   -0.12170
1473.50000   -0.11497
1474.00000   -0.10803
1474.50000   -0.10099
1475.00000   -0.09395
1475.50000   -0.08698
1476.00000   -0.08014
1476.50000   -0.07347
1477.00000   -0.06702
1477.50000   -0.06083
1478.00000   -0.05493
1478.50000   -0.04937
1479.00000   -0.04419
1479.50000   -0.03945
1480.00000   -0.03519
1480.50000   -0.03146
1481.00000   -0.02831
1481.50000   -0.02575
1482.00000   -0.02379
1482.50000   -0.02243
1483.00000   -0.02161
1483.50000   -0.02129
1484.00000   -0.02137
1484.50000   -0.02172
1485.00000   -0.02222
1485.50000   -0.02271
1486.00000   -0.02302
1486.50000   -0.02299
1487.00000   -0.02246
1487.50000   -0.02129
1488.00000   -0.01937
1488.50000   -0.01660
1489.00000   -0.01294
1489.50000   -0.00836
1490.00000   -0.00291
1490.50000    0.00337
1491.00000    0.01035
1491.50000    0.01791
1492.00000    0.02590
1492.50000    0.03416
1493.00000    0.04251
1493.50000    0.05080
1494.00000    0.05888
1494.50000    0.06663
1495.00000    0.07397
1495.50000    0.08083
1496.00000    0.08719
1496.50000    0.09306
1497.00000    0.09845
1497.50000    0.10344
1498.00000    0.10808
1498.50000    0.11245
1499.00000    0.11662
1499.50000    0.12064
1500.00000    0.12456
1500.50000    0.12837
1501.00000    0.13205
1501.50000    0.13555
1502.00000    0.13876
1502.50000    0.14157
1503.00000    0.14382
1503.50000    0.14533
1504.00000    0.14592
1504.50000    0.14543
1505.00000    0.14366
1505.50000    0.14048
1506.00000    0.13578
1506.50000    0.12946
1507.00000    0.12151
1507.50000    0.11194
1508.00000    0.10081
1508.50000    0.08826
1509.00000    0.07446
1509.50000    0.05962
1510.00000    0.04398
1510.50000    0.02785
1511.00000    0.01150
1511.50000   -0.00475
1512.00000   -0.02059
1512.50000   -0.03575
1513.00000   -0.04996
1513.50000   -0.06298
1514.00000   -0.07462
1514.50000   -0.08473
1515.00000   -0.09321
1515.50000   -0.10001
1516.00000   -0.10511
1516.50000   -0.10856
1517.00000   -0.11044
1517.50000   -0.11088
1518.00000   -0.11003
1518.50000   -0.10806
1519.00000   -0.10519
1519.50000   -0.10163
1520.00000   -0.09761
1520.50000   -0.09334
1521.00000   -0.08904
1521.50000   -0.08491
1522.00000   -0.08114
1522.50000   -0.07788
1523.00000   -0.07525
1523.50000   -0.07336
1524.00000   -0.07227
1524.50000   -0.07201
1525.00000   -0.07256
1525.50000   -0.07389
1526.00000   -0.07593
1526.50000   -0.07857
1527.00000   -0.08170
1527.50000   -0.08516
1528.00000   -0.08881
1528.50000   -0.09248
1529.00000   -0.09600
1529.50000   -0.09920
1530.00000   -0.10193
1530.50000   -0.10404
1531.00000   -0.10542
1531.50000   -0.10596
1532.00000   -0.10558
1532.50000   -0.10424
1533.00000   -0.10192
1533.50000   -0.09862
1534.00000   -0.09437
1534.50000   -0.08925
1535.00000   -0.08332
1535.50000   -0.07668
1536.00000   -0.06946
1536.50000   -0.06177
1537.00000   -0.05374
1537.50000   -0.04553
1538.00000   -0.03728
1538.50000   -0.02912
1539.00000   -0.02121
1539.50000   -0.01368
1540.00000   -0.00667
1540.50000   -0.00031
1541.00000    0.00528
1541.50000    0.00998
1542.00000    0.01368
1542.50000    0.01630
1543.00000    0.01775
1543.50000    0.01797
1544.00000    0.01691
1544.50000    0.01455
1545.00000    0.01089
1545.50000    0.00597
1546.00000   -0.00016
1546.50000   -0.00740
1547.00000   -0.01563
1547.50000   -0.02468
1548.00000   -0.03437
1548.50000   -0.04447
1549.00000   -0.05474
1549.50000   -0.06491
1550.00000   -0.07471
1550.50000   -0.08387
1551.00000   -0.09209
1551.50000   -0.09912
1552.00000   -0.10472
1552.50000   -0.10868
1553.00000   -0.11082
1553.50000   -0.11101
1554.00000   -0.10917
1554.50000   -0.10528
1555.00000   -0.09935
1555.50000   -0.09145
1556.00000   -0.08170
1556.50000   -0.07024
1557.00000   -0.05725
1557.50000   -0.04291
1558.00000   -0.02740
1558.50000   -0.01092
1559.00000    0.00637
1559.50000    0.02435
1560.00000    0.04291
1560.50000    0.06200
1561.00000    0.08161
1561.50000    0.10178
1562.00000    0.12260
1562.50000    0.14419
1563.00000    0.16672
1563.50000    0.19038
1564.00000    0.21538
1564.50000    0.24191
1565.00000    0.27020
1565.50000    0.30043
1566.00000    0.33277
1566.50000    0.36734
1567.00000    0.40423
1567.50000    0.44352
1568.00000    0.48521
1568.50000    0.52930
1569.00000    0.57574
1569.50000    0.62448
1570.00000    0.67546
1570.50000    0.72862
1571.00000    0.78390
1571.50000    0.84127
1572.00000    0.90072
1572.50000    0.96228
1573.00000    1.02600
1573.50000    1.09196
1574.00000    1.16028
1574.50000    1.23106
1575.00000    1.30444
1575.50000    1.38053
1576.00000    1.45941
1576.50000    1.54113
1577.00000    1.62567
1577.50000    1.71292
1578.00000    1.80269
1578.50000    1.89469
1579.00000    1.98850
1579.50000    2.08362
1580.00000    2.17941
1580.50000    2.27514
1581.00000    2.36999
1581.50000    2.46305
1582.00000    2.55336
1582.50000    2.63992
1583.00000    2.72172
1583.50000    2.79773
1584.00000    2.86699
1584.50000    2.92857
1585.00000    2.98161
1585.50000    3.02535
1586.00000    3.05915
1586.50000    3.08246
1587.00000    3.09489
1587.50000    3.09618
1588.00000    3.08619
1588.50000    3.06493
1589.00000    3.03254
1589.50000    2.98929
1590.00000    2.93557
1590.50000    2.87185
1591.00000    2.79875
1591.50000    2.71692
1592.00000    2.62712
1592.50000    2.53017
1593.00000    2.42695
1593.50000    2.31838
1594.00000    2.20540
1594.50000    2.08901
1595.00000    1.97019
1595.50000    1.84991
1596.00000    1.72917
1596.50000    1.60890
1597.00000    1.49001
1597.50000    1.37337
1598.00000    1.25975
1598.50000    1.14989
1599.00000    1.04440
1599.50000    0.94381
1600.00000    0.84856
1600.50000    0.75897
1601.00000    0.67525
1601.50000    0.59751
1602.00000    0.52577
1602.50000    0.45995
1603.00000    0.39991
1603.50000    0.34542
1604.00000    0.29623
1604.50000    0.25203
1605.00000    0.21250
1605.50000    0.17732
1606.00000    0.14617
1606.50000    0.11877
1607.00000    0.09484
1607.50000    0.07415
1608.00000    0.05651
1608.50000    0.04177
1609.00000    0.02980
1609.50000    0.02050
1610.00000    0.01382
1610.50000    0.00969
1611.00000    0.00805
1611.50000    0.00883
1612.00000    0.01197
1612.50000    0.01735
1613.00000    0.02484
1613.50000    0.03427
1614.00000    0.04544
1614.50000    0.05812
1615.00000    0.07204
1615.50000    0.08691
1616.00000    0.10244
1616.50000    0.11832
1617.00000    0.13422
1617.50000    0.14987
1618.00000    0.16496
1618.50000    0.17924
1619.00000    0.19249
1619.50000    0.20450
1620.00000    0.21511
1620.50000    0.22419
1621.00000    0.23164
1621.50000    0.23741
1622.00000    0.24146
1622.50000    0.24377
1623.00000    0.24434
1623.50000    0.24317
1624.00000    0.24028
1624.50000    0.23569
1625.00000    0.22942
1625.50000    0.22147
1626.00000    0.21186
1626.50000    0.20059
1627.00000    0.18768
1627.50000    0.17315
1628.00000    0.15701
1628.50000    0.13930
1629.00000    0.12008
1629.50000    0.09941
1630.00000    0.07739
1630.50000    0.05414
1631.00000    0.02979
1631.50000    0.00453
1632.00000   -0.02147
1632.50000   -0.04799
1633.00000   -0.07480
1633.50000   -0.10165
1634.00000   -0.12830
1634.50000   -0.15448
1635.00000   -0.17993
1635.50000   -0.20442
1636.00000   -0.22769
1636.50000   -0.24954
1637.00000   -0.26976
1637.50000   -0.28817
1638.00000   -0.30462
1638.50000   -0.31899
1639.00000   -0.33119
1639.50000   -0.34115
1640.00000   -0.34884
1640.50000   -0.35426
1641.00000   -0.35745
1641.50000   -0.35846
1642.00000   -0.35737
1642.50000   -0.35431
1643.00000   -0.34940
1643.50000   -0.34281
1644.00000   -0.33471
1644.50000   -0.32529
1645.00000   -0.31474
1645.50000   -0.30325
1646.00000   -0.29104
1646.50000   -0.27829
1647.00000   -0.26519
1647.50000   -0.25189
1648.00000   -0.23855
1648.50000   -0.22530
1649.00000   -0.21221
1649.50000   -0.19938
1650.00000   -0.18682
1650.50000   -0.17457
1651.00000   -0.16259
1651.50000   -0.15085
1652.00000   -0.13928
1652.50000   -0.12781
1653.00000   -0.11634
1653.50000   -0.10477
1654.00000   -0.09298
1654.50000   -0.08089
1655.00000   -0.06838
1655.50000   -0.05536
1656.00000   -0.04176
1656.50000   -0.02752
1657.00000   -0.01260
1657.50000    0.00303
1658.00000    0.01936
1658.50000    0.03638
1659.00000    0.05403
1659.50000    0.07224
1660.00000    0.09094
1660.50000    0.11000
1661.00000    0.12930
1661.50000    0.14869
1662.00000    0.16801
1662.50000    0.18709
1663.00000    0.20572
1663.50000    0.22372
1664.00000    0.24088
1664.50000    0.25699
1665.00000    0.27182
1665.50000    0.28519
1666.00000    0.29687
1666.50000    0.30668
1667.00000    0.31444
1667.50000    0.31998
1668.00000    0.32318
1668.50000    0.32393
1669.00000    0.32214
1669.50000    0.31778
1670.00000    0.31085
1670.50000    0.30137
1671.00000    0.28941
1671.50000    0.27510
1672.00000    0.25858
1672.50000    0.24003
1673.00000    0.21967
1673.50000    0.19773
1674.00000    0.17449
1674.50000    0.15021
1675.00000    0.12517
1675.50000    0.09967
1676.00000    0.07400
1676.50000    0.04841
1677.00000    0.02319
1677.50000   -0.00143
1678.00000   -0.02522
1678.50000   -0.04799
1679.00000   -0.06955
1679.50000   -0.08977
1680.00000   -0.10852
1680.50000   -0.12572
1681.00000   -0.14129
1681.50000   -0.15519
1682.00000   -0.16740
1682.50000   -0.17791
1683.00000   -0.18674
1683.50000   -0.19391
1684.00000   -0.19945
1684.50000   -0.20339
1685.00000   -0.20577
1685.50000   -0.20663
1686.00000   -0.20600
1686.50000   -0.20392
1687.00000   -0.20040
1687.50000   -0.19547
1688.00000   -0.18915
1688.50000   -0.18145
1689.00000   -0.17239
1689.50000   -0.16200
1690.00000   -0.15030
1690.50000   -0.13735
1691.00000   -0.12319
1691.50000   -0.10792
1692.00000   -0.09163
1692.50000   -0.07445
1693.00000   -0.05655
1693.50000   -0.03810
1694.00000   -0.01934
1694.50000   -0.00051
1695.00000    0.01811
1695.50000    0.03623
1696.00000    0.05352
1696.50000    0.06966
1697.00000    0.08432
1697.50000    0.09716
1698.00000    0.10786
1698.50000    0.11612
1699.00000    0.12167
1699.50000    0.12429
1700.00000    0.12378
1700.50000    0.12002
1701.00000    0.11293
1701.50000    0.10250
1702.00000    0.08879
1702.50000    0.07193
1703.00000    0.05213
1703.50000    0.02964
1704.00000    0.00481
1704.50000   -0.02197
1705.00000   -0.05026
1705.50000   -0.07956
1706.00000   -0.10934
1706.50000   -0.13905
1707.00000   -0.16812
1707.50000   -0.19597
1708.00000   -0.22207
1708.50000   -0.24587
1709.00000   -0.26691
1709.50000   -0.28474
1710.00000   -0.29899
1710.50000   -0.30938
1711.00000   -0.31568
1711.50000   -0.31778
1712.00000   -0.31563
1712.50000   -0.30928
1713.00000   -0.29887
1713.50000   -0.28461
1714.00000   -0.26678
1714.50000   -0.24571
1715.00000   -0.22180
1715.50000   -0.19546
1716.00000   -0.16715
1716.50000   -0.13731
1717.00000   -0.10640
1717.50000   -0.07483
1718.00000   -0.04303
1718.50000   -0.01137
1719.00000    0.01981
1719.50000    0.05022
1720.00000    0.07961
1720.50000    0.10774
1721.00000    0.13445
1721.50000    0.15960
1722.00000    0.18305
1722.50000    0.20473
1723.00000    0.22455
1723.50000    0.24244
1724.00000    0.25834
1724.50000    0.27220
1725.00000    0.28397
1725.50000    0.29359
1726.00000    0.30104
1726.50000    0.30627
1727.00000    0.30929
1727.50000    0.31009
1728.00000    0.30871
1728.50000    0.30521
1729.00000    0.29968
1729.50000    0.29227
1730.00000    0.28311
1730.50000    0.27243
1731.00000    0.26042
1731.50000    0.24735
1732.00000    0.23347
1732.50000    0.21905
1733.00000    0.20435
1733.50000    0.18961
1734.00000    0.17506
1734.50000    0.16087
1735.00000    0.14721
1735.50000    0.13415
1736.00000    0.12174
1736.50000    0.10996
1737.00000    0.09876
1737.50000    0.08800
1738.00000    0.07754
1738.50000    0.06718
1739.00000    0.05671
1739.50000    0.04590
1740.00000    0.03454
1740.50000    0.02243
1741.00000    0.00940
1741.50000   -0.00467
1742.00000   -0.01987
1742.50000   -0.03621
1743.00000   -0.05364
1743.50000   -0.07205
1744.00000   -0.09126
1744.50000   -0.11102
1745.00000   -0.13105
1745.50000   -0.15098
1746.00000   -0.17045
1746.50000   -0.18904
1747.00000   -0.20633
1747.50000   -0.22191
1748.00000   -0.23536
1748.50000   -0.24631
1749.00000   -0.25443
1749.50000   -0.25943
1750.00000   -0.26109
1750.50000   -0.25925
1751.00000   -0.25383
1751.50000   -0.24484
1752.00000   -0.23234
1752.50000   -0.21650
1753.00000   -0.19753
1753.50000   -0.17573
1754.00000   -0.15144
1754.50000   -0.12505
1755.00000   -0.09702
1755.50000   -0.06780
1756.00000   -0.03788
1756.50000   -0.00776
1757.00000    0.02209
1757.50000    0.05119
1758.00000    0.07909
1758.50000    0.10536
1759.00000    0.12964
1759.50000    0.15160
1760.00000    0.17096
1760.50000    0.18750
1761.00000    0.20107
1761.50000    0.21157
1762.00000    0.21897
1762.50000    0.22332
1763.00000    0.22469
1763.50000    0.22324
1764.00000    0.21916
1764.50000    0.21271
1765.00000    0.20418
1765.50000    0.19386
1766.00000    0.18211
1766.50000    0.16927
1767.00000    0.15567
1767.50000    0.14167
1768.00000    0.12757
1768.50000    0.11365
1769.00000    0.10015
1769.50000    0.08725
1770.00000    0.07510
1770.50000    0.06376
1771.00000    0.05325
1771.50000    0.04351
1772.00000    0.03444
1772.50000    0.02586
1773.00000    0.01758
1773.50000    0.00935
1774.00000    0.00091
1774.50000   -0.00804
1775.00000   -0.01775
1775.50000   -0.02848
1776.00000   -0.04045
1776.50000   -0.05383
1777.00000   -0.06874
1777.50000   -0.08523
1778.00000   -0.10325
1778.50000   -0.12271
1779.00000   -0.14340
1779.50000   -0.16507
1780.00000   -0.18735
1780.50000   -0.20985
1781.00000   -0.23211
1781.50000   -0.25363
1782.00000   -0.27389
1782.50000   -0.29236
1783.00000   -0.30855
1783.50000   -0.32196
1784.00000   -0.33216
1784.50000   -0.33878
1785.00000   -0.34151
1785.50000   -0.34012
1786.00000   -0.33448
1786.50000   -0.32454
1787.00000   -0.31035
1787.50000   -0.29204
1788.00000   -0.26984
1788.50000   -0.24404
1789.00000   -0.21501
1789.50000   -0.18320
1790.00000   -0.14906
1790.50000   -0.11312
1791.00000   -0.07592
1791.50000   -0.03799
1792.00000    0.00013
1792.50000    0.03790
1793.00000    0.07483
1793.50000    0.11044
1794.00000    0.14429
1794.50000    0.17601
1795.00000    0.20526
1795.50000    0.23175
1796.00000    0.25524
1796.50000    0.27556
1797.00000    0.29255
1797.50000    0.30614
1798.00000    0.31628
1798.50000    0.32296
1799.00000    0.32621
1799.50000    0.32610
1800.00000    0.32272
1800.50000    0.31620
1801.00000    0.30670
1801.50000    0.29439
1802.00000    0.27948
1802.50000    0.26219
1803.00000    0.24278
1803.50000    0.22152
1804.00000    0.19868
1804.50000    0.17459
1805.00000    0.14956
1805.50000    0.12390
1806.00000    0.09797
1806.50000    0.07209
1807.00000    0.04659
1807.50000    0.02178
1808.00000   -0.00205
1808.50000   -0.02462
1809.00000   -0.04569
1809.50000   -0.06507
1810.00000   -0.08259
1810.50000   -0.09815
1811.00000   -0.11168
1811.50000   -0.12316
1812.00000   -0.13261
1812.50000   -0.14009
1813.00000   -0.14570
1813.50000   -0.14957
1814.00000   -0.15183
1814.50000   -0.15263
1815.00000   -0.15213
1815.50000   -0.15048
1816.00000   -0.14781
1816.50000   -0.14424
1817.00000   -0.13987
1817.50000   -0.13477
1818.00000   -0.12900
1818.50000   -0.12257
1819.00000   -0.11551
1819.50000   -0.10781
1820.00000   -0.09947
1820.50000   -0.09048
1821.00000   -0.08084
1821.50000   -0.07058
1822.00000   -0.05973
1822.50000   -0.04837
1823.00000   -0.03660
1823.50000   -0.02455
1824.00000   -0.01239
1824.50000   -0.00033
1825.00000    0.01142
1825.50000    0.02262
1826.00000    0.03302
1826.50000    0.04237
1827.00000    0.05043
1827.50000    0.05698
1828.00000    0.06184
1828.50000    0.06485
1829.00000    0.06593
1829.50000    0.06501
1830.00000    0.06210
1830.50000    0.05727
1831.00000    0.05063
1831.50000    0.04235
1832.00000    0.03263
1832.50000    0.02173
1833.00000    0.00994
1833.50000   -0.00244
1834.00000   -0.01510
1834.50000   -0.02770
1835.00000   -0.03993
1835.50000   -0.05150
1836.00000   -0.06213
1836.50000   -0.07156
1837.00000   -0.07960
1837.50000   -0.08606
1838.00000   -0.09081
1838.50000   -0.09378
1839.00000   -0.09492
1839.50000   -0.09424
1840.00000   -0.09178
1840.50000   -0.08762
1841.00000   -0.08187
1841.50000   -0.07467
1842.00000   -0.06619
1842.50000   -0.05661
1843.00000   -0.04613
1843.50000   -0.03493
1844.00000   -0.02323
1844.50000   -0.01123
1845.00000    0.00090
1845.50000    0.01295
1846.00000    0.02478
1846.50000    0.03622
1847.00000    0.04714
1847.50000    0.05742
1848.00000    0.06697
1848.50000    0.07570
1849.00000    0.08354
1849.50000    0.09046
1850.00000    0.09642
1850.50000    0.10139
1851.00000    0.10539
1851.50000    0.10841
1852.00000    0.11047
1852.50000    0.11160
1853.00000    0.11182
1853.50000    0.11119
1854.00000    0.10973
1854.50000    0.10751
1855.00000    0.10459
1855.50000    0.10101
1856.00000    0.09684
1856.50000    0.09214
1857.00000    0.08699
1857.50000    0.08144
1858.00000    0.07556
1858.50000    0.06941
1859.00000    0.06306
1859.50000    0.05656
1860.00000    0.04996
1860.50000    0.04332
1861.00000    0.03669
1861.50000    0.03010
1862.00000    0.02362
1862.50000    0.01728
1863.00000    0.01114
1863.50000    0.00525
1864.00000   -0.00031
1864.50000   -0.00547
1865.00000   -0.01015
1865.50000   -0.01425
1866.00000   -0.01768
1866.50000   -0.02033
1867.00000   -0.02210
1867.50000   -0.02288
1868.00000   -0.02257
1868.50000   -0.02112
1869.00000   -0.01846
1869.50000   -0.01458
1870.00000   -0.00950
1870.50000   -0.00330
1871.00000    0.00393
1871.50000    0.01200
1872.00000    0.02070
1872.50000    0.02976
1873.00000    0.03887
1873.50000    0.04770
1874.00000    0.05586
1874.50000    0.06299
1875.00000    0.06873
1875.50000    0.07273
1876.00000    0.07469
1876.50000    0.07436
1877.00000    0.07158
1877.50000    0.06625
1878.00000    0.05836
1878.50000    0.04800
1879.00000    0.03536
1879.50000    0.02069
1880.00000    0.00435
1880.50000   -0.01326
1881.00000   -0.03169
1881.50000   -0.05042
1882.00000   -0.06897
1882.50000   -0.08684
1883.00000   -0.10354
1883.50000   -0.11866
1884.00000   -0.13182
1884.50000   -0.14272
1885.00000   -0.15113
1885.50000   -0.15690
1886.00000   -0.15999
1886.50000   -0.16040
1887.00000   -0.15822
1887.50000   -0.15361
1888.00000   -0.14678
1888.50000   -0.13795
1889.00000   -0.12741
1889.50000   -0.11543
1890.00000   -0.10231
1890.50000   -0.08832
1891.00000   -0.07373
1891.50000   -0.05878
1892.00000   -0.04371
1892.50000   -0.02872
1893.00000   -0.01399
1893.50000    0.00028
1894.00000    0.01395
1894.50000    0.02683
1895.00000    0.03878
1895.50000    0.04963
1896.00000    0.05921
1896.50000    0.06735
1897.00000    0.07388
1897.50000    0.07863
1898.00000    0.08144
1898.50000    0.08218
1899.00000    0.08072
1899.50000    0.07699
1900.00000    0.07095
1900.50000    0.06262
1901.00000    0.05206
1901.50000    0.03942
1902.00000    0.02488
1902.50000    0.00872
1903.00000   -0.00876
1903.50000   -0.02716
1904.00000   -0.04607
1904.50000   -0.06503
1905.00000   -0.08357
1905.50000   -0.10121
1906.00000   -0.11747
1906.50000   -0.13190
1907.00000   -0.14412
1907.50000   -0.15376
1908.00000   -0.16056
1908.50000   -0.16433
1909.00000   -0.16496
1909.50000   -0.16246
1910.00000   -0.15691
1910.50000   -0.14851
1911.00000   -0.13754
1911.50000   -0.12437
1912.00000   -0.10942
1912.50000   -0.09319
1913.00000   -0.07620
1913.50000   -0.05898
1914.00000   -0.04209
1914.50000   -0.02603
1915.00000   -0.01128
1915.50000    0.00174
1916.00000    0.01271
1916.50000    0.02136
1917.00000    0.02756
1917.50000    0.03125
1918.00000    0.03250
1918.50000    0.03147
1919.00000    0.02842
1919.50000    0.02369
1920.00000    0.01771
1920.50000    0.01092
1921.00000    0.00384
1921.50000   -0.00305
1922.00000   -0.00924
1922.50000   -0.01428
1923.00000   -0.01777
1923.50000   -0.01937
1924.00000   -0.01884
1924.50000   -0.01602
1925.00000   -0.01087
1925.50000   -0.00344
1926.00000    0.00613
1926.50000    0.01759
1927.00000    0.03062
1927.50000    0.04484
1928.00000    0.05982
1928.50000    0.07510
1929.00000    0.09022
1929.50000    0.10473
1930.00000    0.11821
1930.50000    0.13027
1931.00000    0.14060
1931.50000    0.14894
1932.00000    0.15511
1932.50000    0.15900
1933.00000    0.16057
1933.50000    0.15987
1934.00000    0.15698
1934.50000    0.15207
1935.00000    0.14534
1935.50000    0.13704
1936.00000    0.12743
1936.50000    0.11680
1937.00000    0.10545
1937.50000    0.09366
1938.00000    0.08172
1938.50000    0.06991
1939.00000    0.05849
1939.50000    0.04767
1940.00000    0.03768
1940.50000    0.02869
1941.00000    0.02085
1941.50000    0.01430
1942.00000    0.00911
1942.50000    0.00536
1943.00000    0.00309
1943.50000    0.00228
1944.00000    0.00292
1944.50000    0.00495
1945.00000    0.00827
1945.50000    0.01278
1946.00000    0.01832
1946.50000    0.02472
1947.00000    0.03179
1947.50000    0.03931
1948.00000    0.04708
1948.50000    0.05484
1949.00000    0.06237
1949.50000    0.06943
1950.00000    0.07581
1950.50000    0.08129
1951.00000    0.08570
1951.50000    0.08888
1952.00000    0.09069
1952.50000    0.09105
1953.00000    0.08990
1953.50000    0.08722
1954.00000    0.08303
1954.50000    0.07738
1955.00000    0.07036
1955.50000    0.06209
1956.00000    0.05273
1956.50000    0.04245
1957.00000    0.03144
1957.50000    0.01992
1958.00000    0.00811
1958.50000   -0.00377
1959.00000   -0.01549
1959.50000   -0.02683
1960.00000   -0.03758
1960.50000   -0.04756
1961.00000   -0.05659
1961.50000   -0.06454
1962.00000   -0.07127
1962.50000   -0.07672
1963.00000   -0.08082
1963.50000   -0.08356
1964.00000   -0.08497
1964.50000   -0.08510
1965.00000   -0.08402
1965.50000   -0.08187
1966.00000   -0.07877
1966.50000   -0.07489
1967.00000   -0.07040
1967.50000   -0.06549
1968.00000   -0.06036
1968.50000   -0.05518
1969.00000   -0.05013
1969.50000   -0.04537
1970.00000   -0.04104
1970.50000   -0.03727
1971.00000   -0.03413
1971.50000   -0.03170
1972.00000   -0.03000
1972.50000   -0.02905
1973.00000   -0.02880
1973.50000   -0.02923
1974.00000   -0.03026
1974.50000   -0.03181
1975.00000   -0.03378
1975.50000   -0.03606
1976.00000   -0.03854
1976.50000   -0.04112
1977.00000   -0.04368
1977.50000   -0.04613
1978.00000   -0.04837
1978.50000   -0.05033
1979.00000   -0.05193
1979.50000   -0.05312
1980.00000   -0.05384
1980.50000   -0.05405
1981.00000   -0.05372
1981.50000   -0.05281
1982.00000   -0.05130
1982.50000   -0.04913
1983.00000   -0.04628
1983.50000   -0.04270
1984.00000   -0.03834
1984.50000   -0.03312
1985.00000   -0.02696
1985.50000   -0.01978
1986.00000   -0.01148
1986.50000   -0.00196
1987.00000    0.00891
1987.50000    0.02123
1988.00000    0.03511
1988.50000    0.05064
1989.00000    0.06790
1989.50000    0.08695
1990.00000    0.10782
1990.50000    0.13049
1991.00000    0.15490
1991.50000    0.18097
1992.00000    0.20854
1992.50000    0.23742
1993.00000    0.26736
1993.50000    0.29806
1994.00000    0.32919
1994.50000    0.36038
1995.00000    0.39125
1995.50000    0.42136
1996.00000    0.45032
1996.50000    0.47773
1997.00000    0.50318
1997.50000    0.52635
1998.00000    0.54693
1998.50000    0.56466
1999.00000    0.57936
1999.50000    0.59091
2000.00000    0.59924
2000.50000    0.60438
2001.00000    0.60638
2001.50000    0.60538
2002.00000    0.60155
2002.50000    0.59509
2003.00000    0.58621
2003.50000    0.57514
2004.00000    0.56209
2004.50000    0.54725
2005.00000    0.53078
2005.50000    0.51279
2006.00000    0.49333
2006.50000    0.47242
2007.00000    0.45003
2007.50000    0.42606
2008.00000    0.40039
2008.50000    0.37289
2009.00000    0.34340
2009.50000    0.31177
2010.00000    0.27788
2010.50000    0.24167
2011.00000    0.20310
2011.50000    0.16223
2012.00000    0.11920
2012.50000    0.07423
2013.00000    0.02763
2013.50000   -0.02019
2014.00000   -0.06873
2014.50000   -0.11743
2015.00000   -0.16567
2015.50000   -0.21279
2016.00000   -0.25808
2016.50000   -0.30088
2017.00000   -0.34050
2017.50000   -0.37634
2018.00000   -0.40781
2018.50000   -0.43446
2019.00000   -0.45588
2019.50000   -0.47180
2020.00000   -0.48205
2020.50000   -0.48659
2021.00000   -0.48549
2021.50000   -0.47891
2022.00000   -0.46715
2022.50000   -0.45058
2023.00000   -0.42965
2023.50000   -0.40489
2024.00000   -0.37686
2024.50000   -0.34616
2025.00000   -0.31341
2025.50000   -0.27920
2026.00000   -0.24415
2026.50000   -0.20881
2027.00000   -0.17372
2027.50000   -0.13935
2028.00000   -0.10611
2028.50000   -0.07438
2029.00000   -0.04445
2029.50000   -0.01655
2030.00000    0.00916
2030.50000    0.03256
2031.00000    0.05363
2031.50000    0.07236
2032.00000    0.08882
2032.50000    0.10312
2033.00000    0.11541
2033.50000    0.12585
2034.00000    0.13466
2034.50000    0.14205
2035.00000    0.14825
2035.50000    0.15351
2036.00000    0.15804
2036.50000    0.16207
2037.00000    0.16579
2037.50000    0.16940
2038.00000    0.17304
2038.50000    0.17684
2039.00000    0.18088
2039.50000    0.18523
2040.00000    0.18991
2040.50000    0.19492
2041.00000    0.20020
2041.50000    0.20570
2042.00000    0.21133
2042.50000    0.21698
2043.00000    0.22254
2043.50000    0.22788
2044.00000    0.23287
2044.50000    0.23737
2045.00000    0.24127
2045.50000    0.24444
2046.00000    0.24677
2046.50000    0.24816
2047.00000    0.24851
2047.50000    0.24772
2048.00000    0.24572
2048.50000    0.24243
2049.00000    0.23776
2049.50000    0.23165
2050.00000    0.22401
2050.50000    0.21478
2051.00000    0.20390
2051.50000    0.19129
2052.00000    0.17692
2052.50000    0.16073
2053.00000    0.14273
2053.50000    0.12291
2054.00000    0.10134
2054.50000    0.07807
2055.00000    0.05325
2055.50000    0.02704
2056.00000   -0.00034
2056.50000   -0.02861
2057.00000   -0.05746
2057.50000   -0.08653
2058.00000   -0.11541
2058.50000   -0.14368
2059.00000   -0.17087
2059.50000   -0.19653
2060.00000   -0.22020
2060.50000   -0.24144
2061.00000   -0.25982
2061.50000   -0.27499
2062.00000   -0.28662
2062.50000   -0.29445
2063.00000   -0.29830
2063.50000   -0.29805
2064.00000   -0.29369
2064.50000   -0.28527
2065.00000   -0.27292
2065.50000   -0.25686
2066.00000   -0.23738
2066.50000   -0.21483
2067.00000   -0.18961
2067.50000   -0.16216
2068.00000   -0.13297
2068.50000   -0.10252
2069.00000   -0.07132
2069.50000   -0.03985
2070.00000   -0.00858
2070.50000    0.02205
2071.00000    0.05164
2071.50000    0.07984
2072.00000    0.10636
2072.50000    0.13094
2073.00000    0.15340
2073.50000    0.17361
2074.00000    0.19148
2074.50000    0.20697
2075.00000    0.22008
2075.50000    0.23086
2076.00000    0.23934
2076.50000    0.24562
2077.00000    0.24976
2077.50000    0.25186
2078.00000    0.25199
2078.50000    0.25025
2079.00000    0.24669
2079.50000    0.24139
2080.00000    0.23440
2080.50000    0.22580
2081.00000    0.21565
2081.50000    0.20403
2082.00000    0.19104
2082.50000    0.17679
2083.00000    0.16143
2083.50000    0.14513
2084.00000    0.12810
2084.50000    0.11058
2085.00000    0.09284
2085.50000    0.07515
2086.00000    0.05782
2086.50000    0.04115
2087.00000    0.02545
2087.50000    0.01098
2088.00000   -0.00199
2088.50000   -0.01325
2089.00000   -0.02264
2089.50000   -0.03004
2090.00000   -0.03540
2090.50000   -0.03873
2091.00000   -0.04009
2091.50000   -0.03960
2092.00000   -0.03742
2092.50000   -0.03376
2093.00000   -0.02886
2093.50000   -0.02297
2094.00000   -0.01633
2094.50000   -0.00920
2095.00000   -0.00183
2095.50000    0.00559
2096.00000    0.01287
2096.50000    0.01984
2097.00000    0.02640
2097.50000    0.03245
2098.00000    0.03791
2098.50000    0.04275
2099.00000    0.04693
2099.50000    0.05042
2100.00000    0.05320
2100.50000    0.05521
2101.00000    0.05641
2101.50000    0.05673
2102.00000    0.05609
2102.50000    0.05438
2103.00000    0.05148
2103.50000    0.04726
2104.00000    0.04162
2104.50000    0.03442
2105.00000    0.02556
2105.50000    0.01498
2106.00000    0.00261
2106.50000   -0.01153
2107.00000   -0.02743
2107.50000   -0.04499
2108.00000   -0.06409
2108.50000   -0.08455
2109.00000   -0.10618
2109.50000   -0.12871
2110.00000   -0.15188
2110.50000   -0.17540
2111.00000   -0.19897
2111.50000   -0.22228
2112.00000   -0.24506
2112.50000   -0.26700
2113.00000   -0.28786
2113.50000   -0.30738
2114.00000   -0.32534
2114.50000   -0.34156
2115.00000   -0.35585
2115.50000   -0.36807
2116.00000   -0.37809
2116.50000   -0.38578
2117.00000   -0.39104
2117.50000   -0.39380
2118.00000   -0.39398
2118.50000   -0.39152
2119.00000   -0.38638
2119.50000   -0.37855
2120.00000   -0.36802
2120.50000   -0.35483
2121.00000   -0.33903
2121.50000   -0.32071
2122.00000   -0.30001
2122.50000   -0.27708
2123.00000   -0.25213
2123.50000   -0.22539
2124.00000   -0.19712
2124.50000   -0.16763
2125.00000   -0.13724
2125.50000   -0.10626
2126.00000   -0.07506
2126.50000   -0.04396
2127.00000   -0.01330
2127.50000    0.01660
2128.00000    0.04545
2128.50000    0.07299
2129.00000    0.09898
2129.50000    0.12322
2130.00000    0.14555
2130.50000    0.16584
2131.00000    0.18399
2131.50000    0.19994
2132.00000    0.21367
2132.50000    0.22516
2133.00000    0.23442
2133.50000    0.24148
2134.00000    0.24639
2134.50000    0.24920
2135.00000    0.24999
2135.50000    0.24883
2136.00000    0.24582
2136.50000    0.24107
2137.00000    0.23469
2137.50000    0.22684
2138.00000    0.21766
2138.50000    0.20734
2139.00000    0.19608
2139.50000    0.18411
2140.00000    0.17168
2140.50000    0.15905
2141.00000    0.14650
2141.50000    0.13431
2142.00000    0.12278
2142.50000    0.11218
2143.00000    0.10277
2143.50000    0.09479
2144.00000    0.08843
2144.50000    0.08385
2145.00000    0.08114
2145.50000    0.08034
2146.00000    0.08140
2146.50000    0.08423
2147.00000    0.08865
2147.50000    0.09441
2148.00000    0.10121
2148.50000    0.10870
2149.00000    0.11647
2149.50000    0.12409
2150.00000    0.13112
2150.50000    0.13713
2151.00000    0.14167
2151.50000    0.14438
2152.00000    0.14490
2152.50000    0.14297
2153.00000    0.13840
2153.50000    0.13108
2154.00000    0.12100
2154.50000    0.10824
2155.00000    0.09299
2155.50000    0.07553
2156.00000    0.05623
2156.50000    0.03553
2157.00000    0.01395
2157.50000   -0.00795
2158.00000   -0.02955
2158.50000   -0.05023
2159.00000   -0.06936
2159.50000   -0.08632
2160.00000   -0.10051
2160.50000   -0.11141
2161.00000   -0.11853
2161.50000   -0.12147
2162.00000   -0.11992
2162.50000   -0.11365
2163.00000   -0.10257
2163.50000   -0.08666
2164.00000   -0.06605
2164.50000   -0.04098
2165.00000   -0.01179
2165.50000    0.02105
2166.00000    0.05699
2166.50000    0.09535
2167.00000    0.13542
2167.50000    0.17638
2168.00000    0.21740
2168.50000    0.25761
2169.00000    0.29614
2169.50000    0.33214
2170.00000    0.36484
2170.50000    0.39349
2171.00000    0.41748
2171.50000    0.43629
2172.00000    0.44954
2172.50000    0.45699
2173.00000    0.45856
2173.50000    0.45431
2174.00000    0.44446
2174.50000    0.42936
2175.00000    0.40948
2175.50000    0.38540
2176.00000    0.35777
2176.50000    0.32731
2177.00000    0.29473
2177.50000    0.26075
2178.00000    0.22607
2178.50000    0.19129
2179.00000    0.15699
2179.50000    0.12361
2180.00000    0.09150
2180.50000    0.06093
2181.00000    0.03204
2181.50000    0.00489
2182.00000   -0.02054
2182.50000   -0.04434
2183.00000   -0.06663
2183.50000   -0.08757
2184.00000   -0.10732
2184.50000   -0.12605
2185.00000   -0.14388
2185.50000   -0.16091
2186.00000   -0.17720
2186.50000   -0.19276
2187.00000   -0.20756
2187.50000   -0.22154
2188.00000   -0.23459
2188.50000   -0.24658
2189.00000   -0.25737
2189.50000   -0.26683
2190.00000   -0.27480
2190.50000   -0.28117
2191.00000   -0.28581
2191.50000   -0.28865
2192.00000   -0.28963
2192.50000   -0.28870
2193.00000   -0.28586
2193.50000   -0.28113
2194.00000   -0.27453
2194.50000   -0.26611
2195.00000   -0.25595
2195.50000   -0.24411
2196.00000   -0.23068
2196.50000   -0.21577
2197.00000   -0.19947
2197.50000   -0.18193
2198.00000   -0.16327
2198.50000   -0.14364
2199.00000   -0.12322
2199.50000   -0.10219
2200.00000   -0.08075
2200.50000   -0.05912
2201.00000   -0.03752
2201.50000   -0.01616
2202.00000    0.00473
2202.50000    0.02494
2203.00000    0.04430
2203.50000    0.06264
2204.00000    0.07982
2204.50000    0.09576
2205.00000    0.11041
2205.50000    0.12374
2206.00000    0.13578
2206.50000    0.14658
2207.00000    0.15621
2207.50000    0.16476
2208.00000    0.17233
2208.50000    0.17902
2209.00000    0.18489
2209.50000    0.19002
2210.00000    0.19442
2210.50000    0.19809
2211.00000    0.20101
2211.50000    0.20310
2212.00000    0.20425
2212.50000    0.20436
2213.00000    0.20329
2213.50000    0.20088
2214.00000    0.19701
2214.50000    0.19153
2215.00000    0.18435
2215.50000    0.17538
2216.00000    0.16456
2216.50000    0.15189
2217.00000    0.13738
2217.50000    0.12108
2218.00000    0.10307
2218.50000    0.08348
2219.00000    0.06243
2219.50000    0.04008
2220.00000    0.01660
2220.50000   -0.00783
2221.00000   -0.03301
2221.50000   -0.05874
2222.00000   -0.08479
2222.50000   -0.11094
2223.00000   -0.13693
2223.50000   -0.16249
2224.00000   -0.18734
2224.50000   -0.21115
2225.00000   -0.23360
2225.50000   -0.25435
2226.00000   -0.27302
2226.50000   -0.28928
2227.00000   -0.30277
2227.50000   -0.31318
2228.00000   -0.32022
2228.50000   -0.32369
2229.00000   -0.32342
2229.50000   -0.31933
2230.00000   -0.31143
2230.50000   -0.29984
2231.00000   -0.28475
2231.50000   -0.26646
2232.00000   -0.24534
2232.50000   -0.22182
2233.00000   -0.19642
2233.50000   -0.16964
2234.00000   -0.14202
2234.50000   -0.11409
2235.00000   -0.08633
2235.50000   -0.05918
2236.00000   -0.03298
2236.50000   -0.00802
2237.00000    0.01552
2237.50000    0.03755
2238.00000    0.05806
2238.50000    0.07715
2239.00000    0.09494
2239.50000    0.11165
2240.00000    0.12750
2240.50000    0.14271
2241.00000    0.15753
2241.50000    0.17213
2242.00000    0.18668
2242.50000    0.20124
2243.00000    0.21583
2243.50000    0.23039
2244.00000    0.24479
2244.50000    0.25882
2245.00000    0.27222
2245.50000    0.28468
2246.00000    0.29587
2246.50000    0.30543
2247.00000    0.31303
2247.50000    0.31835
2248.00000    0.32111
2248.50000    0.32108
2249.00000    0.31810
2249.50000    0.31209
2250.00000    0.30304
2250.50000    0.29100
2251.00000    0.27612
2251.50000    0.25861
2252.00000    0.23874
2252.50000    0.21685
2253.00000    0.19330
2253.50000    0.16849
2254.00000    0.14285
2254.50000    0.11683
2255.00000    0.09085
2255.50000    0.06534
2256.00000    0.04071
2256.50000    0.01736
2257.00000   -0.00437
2257.50000   -0.02416
2258.00000   -0.04173
2258.50000   -0.05686
2259.00000   -0.06937
2259.50000   -0.07914
2260.00000   -0.08609
2260.50000   -0.09022
2261.00000   -0.09155
2261.50000   -0.09020
2262.00000   -0.08632
2262.50000   -0.08010
2263.00000   -0.07180
2263.50000   -0.06172
2264.00000   -0.05018
2264.50000   -0.03756
2265.00000   -0.02424
2265.50000   -0.01062
2266.00000    0.00288
2266.50000    0.01586
2267.00000    0.02790
2267.50000    0.03863
2268.00000    0.04770
2268.50000    0.05477
2269.00000    0.05957
2269.50000    0.06186
2270.00000    0.06146
2270.50000    0.05824
2271.00000    0.05216
2271.50000    0.04322
2272.00000    0.03150
2272.50000    0.01714
2273.00000    0.00037
2273.50000   -0.01853
2274.00000   -0.03922
2274.50000   -0.06127
2275.00000   -0.08425
2275.50000   -0.10765
2276.00000   -0.13095
2276.50000   -0.15362
2277.00000   -0.17513
2277.50000   -0.19495
2278.00000   -0.21263
2278.50000   -0.22772
2279.00000   -0.23988
2279.50000   -0.24882
2280.00000   -0.25435
2280.50000   -0.25637
2281.00000   -0.25490
2281.50000   -0.25003
2282.00000   -0.24196
2282.50000   -0.23098
2283.00000   -0.21744
2283.50000   -0.20176
2284.00000   -0.18439
2284.50000   -0.16580
2285.00000   -0.14649
2285.50000   -0.12691
2286.00000   -0.10749
2286.50000   -0.08863
2287.00000   -0.07065
2287.50000   -0.05381
2288.00000   -0.03830
2288.50000   -0.02425
2289.00000   -0.01169
2289.50000   -0.00061
2290.00000    0.00905
2290.50000    0.01742
2291.00000    0.02464
2291.50000    0.03087
2292.00000    0.03630
2292.50000    0.04111
2293.00000    0.04545
2293.50000    0.04946
2294.00000    0.05325
2294.50000    0.05690
2295.00000    0.06045
2295.50000    0.06390
2296.00000    0.06720
2296.50000    0.07028
2297.00000    0.07304
2297.50000    0.07532
2298.00000    0.07697
2298.50000    0.07781
2299.00000    0.07765
2299.50000    0.07630
2300.00000    0.07357
2300.50000    0.06931
2301.00000    0.06336
2301.50000    0.05562
2302.00000    0.04604
2302.50000    0.03460
2303.00000    0.02135
2303.50000    0.00641
2304.00000   -0.01003
2304.50000   -0.02773
2305.00000   -0.04635
2305.50000   -0.06551
2306.00000   -0.08478
2306.50000   -0.10369
2307.00000   -0.12172
2307.50000   -0.13837
2308.00000   -0.15313
2308.50000   -0.16554
2309.00000   -0.17518
2309.50000   -0.18168
2310.00000   -0.18478
2310.50000   -0.18430
2311.00000   -0.18019
2311.50000   -0.17247
2312.00000   -0.16130
2312.50000   -0.14693
2313.00000   -0.12971
2313.50000   -0.11005
2314.00000   -0.08842
2314.50000   -0.06535
2315.00000   -0.04136
2315.50000   -0.01696
2316.00000    0.00734
2316.50000    0.03110
2317.00000    0.05394
2317.50000    0.07555
2318.00000    0.09570
2318.50000    0.11423
2319.00000    0.13107
2319.50000    0.14620
2320.00000    0.15968
2320.50000    0.17161
2321.00000    0.18210
2321.50000    0.19129
2322.00000    0.19931
2322.50000    0.20628
2323.00000    0.21227
2323.50000    0.21734
2324.00000    0.22149
2324.50000    0.22470
2325.00000    0.22687
2325.50000    0.22791
2326.00000    0.22767
2326.50000    0.22600
2327.00000    0.22273
2327.50000    0.21773
2328.00000    0.21085
2328.50000    0.20201
2329.00000    0.19114
2329.50000    0.17825
2330.00000    0.16338
2330.50000    0.14665
2331.00000    0.12823
2331.50000    0.10836
2332.00000    0.08732
2332.50000    0.06546
2333.00000    0.04316
2333.50000    0.02082
2334.00000   -0.00111
2334.50000   -0.02221
2335.00000   -0.04202
2335.50000   -0.06014
2336.00000   -0.07616
2336.50000   -0.08973
2337.00000   -0.10056
2337.50000   -0.10840
2338.00000   -0.11309
2338.50000   -0.11454
2339.00000   -0.11272
2339.50000   -0.10770
2340.00000   -0.09964
2340.50000   -0.08875
2341.00000   -0.07532
2341.50000   -0.05971
2342.00000   -0.04232
2342.50000   -0.02360
2343.00000   -0.00402
2343.50000    0.01595
2344.00000    0.03582
2344.50000    0.05512
2345.00000    0.07344
2345.50000    0.09035
2346.00000    0.10553
2346.50000    0.11866
2347.00000    0.12951
2347.50000    0.13790
2348.00000    0.14368
2348.50000    0.14680
2349.00000    0.14721
2349.50000    0.14494
2350.00000    0.14004
2350.50000    0.13258
2351.00000    0.12268
2351.50000    0.11045
2352.00000    0.09605
2352.50000    0.07962
2353.00000    0.06135
2353.50000    0.04143
2354.00000    0.02005
2354.50000   -0.00254
2355.00000   -0.02609
2355.50000   -0.05033
2356.00000   -0.07495
2356.50000   -0.09960
2357.00000   -0.12394
2357.50000   -0.14757
2358.00000   -0.17010
2358.50000   -0.19111
2359.00000   -0.21019
2359.50000   -0.22695
2360.00000   -0.24101
2360.50000   -0.25204
2361.00000   -0.25974
2361.50000   -0.26390
2362.00000   -0.26438
2362.50000   -0.26109
2363.00000   -0.25409
2363.50000   -0.24348
2364.00000   -0.22948
2364.50000   -0.21241
2365.00000   -0.19266
2365.50000   -0.17071
2366.00000   -0.14710
2366.50000   -0.12241
2367.00000   -0.09724
2367.50000   -0.07221
2368.00000   -0.04793
2368.50000   -0.02496
2369.00000   -0.00380
2369.50000    0.01513
2370.00000    0.03150
2370.50000    0.04508
2371.00000    0.05576
2371.50000    0.06357
2372.00000    0.06864
2372.50000    0.07120
2373.00000    0.07160
2373.50000    0.07027
2374.00000    0.06768
2374.50000    0.06435
2375.00000    0.06079
2375.50000    0.05751
2376.00000    0.05496
2376.50000    0.05351
2377.00000    0.05347
2377.50000    0.05500
2378.00000    0.05817
2378.50000    0.06291
2379.00000    0.06905
2379.50000    0.07631
2380.00000    0.08431
2380.50000    0.09260
2381.00000    0.10070
2381.50000    0.10810
2382.00000    0.11430
2382.50000    0.11884
2383.00000    0.12134
2383.50000    0.12149
2384.00000    0.11906
2384.50000    0.11398
2385.00000    0.10623
2385.50000    0.09593
2386.00000    0.08331
2386.50000    0.06865
2387.00000    0.05230
2387.50000    0.03468
2388.00000    0.01619
2388.50000   -0.00274
2389.00000   -0.02172
2389.50000   -0.04040
2390.00000   -0.05847
2390.50000   -0.07567
2391.00000   -0.09181
2391.50000   -0.10676
2392.00000   -0.12043
2392.50000   -0.13275
2393.00000   -0.14369
2393.50000   -0.15323
2394.00000   -0.16133
2394.50000   -0.16794
2395.00000   -0.17296
2395.50000   -0.17629
2396.00000   -0.17776
2396.50000   -0.17719
2397.00000   -0.17435
2397.50000   -0.16900
2398.00000   -0.16092
2398.50000   -0.14988
2399.00000   -0.13569
2399.50000   -0.11823
2400.00000   -0.09741
2400.50000   -0.07326
2401.00000   -0.04587
2401.50000   -0.01544
2402.00000    0.01773
2402.50000    0.05327
2403.00000    0.09072
2403.50000    0.12953
2404.00000    0.16912
2404.50000    0.20887
2405.00000    0.24815
2405.50000    0.28632
2406.00000    0.32279
2406.50000    0.35698
2407.00000    0.38841
2407.50000    0.41664
2408.00000    0.44131
2408.50000    0.46216
2409.00000    0.47901
2409.50000    0.49175
2410.00000    0.50035
2410.50000    0.50487
2411.00000    0.50540
2411.50000    0.50211
2412.00000    0.49517
2412.50000    0.48482
2413.00000    0.47130
2413.50000    0.45486
2414.00000    0.43578
2414.50000    0.41431
2415.00000    0.39072
2415.50000    0.36529
2416.00000    0.33826
2416.50000    0.30989
2417.00000    0.28045
2417.50000    0.25016
2418.00000    0.21927
2418.50000    0.18802
2419.00000    0.15662
2419.50000    0.12530
2420.00000    0.09425
2420.50000    0.06367
2421.00000    0.03370
2421.50000    0.00452
2422.00000   -0.02377
2422.50000   -0.05105
2423.00000   -0.07723
2423.50000   -0.10224
2424.00000   -0.12603
2424.50000   -0.14853
2425.00000   -0.16970
2425.50000   -0.18945
2426.00000   -0.20772
2426.50000   -0.22440
2427.00000   -0.23936
2427.50000   -0.25243
2428.00000   -0.26344
2428.50000   -0.27214
2429.00000   -0.27832
2429.50000   -0.28171
2430.00000   -0.28205
2430.50000   -0.27910
2431.00000   -0.27264
2431.50000   -0.26250
2432.00000   -0.24857
2432.50000   -0.23080
2433.00000   -0.20925
2433.50000   -0.18407
2434.00000   -0.15550
2434.50000   -0.12389
2435.00000   -0.08969
2435.50000   -0.05344
2436.00000   -0.01574
2436.50000    0.02275
2437.00000    0.06134
2437.50000    0.09932
2438.00000    0.13601
2438.50000    0.17078
2439.00000    0.20304
2439.50000    0.23230
2440.00000    0.25817
2440.50000    0.28036
2441.00000    0.29872
2441.50000    0.31318
2442.00000    0.32380
2442.50000    0.33074
2443.00000    0.33424
2443.50000    0.33460
2444.00000    0.33217
2444.50000    0.32733
2445.00000    0.32045
2445.50000    0.31190
2446.00000    0.30201
2446.50000    0.29106
2447.00000    0.27928
2447.50000    0.26685
2448.00000    0.25388
2448.50000    0.24042
2449.00000    0.22647
2449.50000    0.21198
2450.00000    0.19687
2450.50000    0.18105
2451.00000    0.16441
2451.50000    0.14683
2452.00000    0.12823
2452.50000    0.10853
2453.00000    0.08769
2453.50000    0.06571
2454.00000    0.04262
2454.50000    0.01850
2455.00000   -0.00653
2455.50000   -0.03231
2456.00000   -0.05866
2456.50000   -0.08532
2457.00000   -0.11206
2457.50000   -0.13858
2458.00000   -0.16459
2458.50000   -0.18977
2459.00000   -0.21382
2459.50000   -0.23643
2460.00000   -0.25730
2460.50000   -0.27616
2461.00000   -0.29274
2461.50000   -0.30683
2462.00000   -0.31826
2462.50000   -0.32690
2463.00000   -0.33266
2463.50000   -0.33554
2464.00000   -0.33555
2464.50000   -0.33280
2465.00000   -0.32742
2465.50000   -0.31964
2466.00000   -0.30967
2466.50000   -0.29780
2467.00000   -0.28434
2467.50000   -0.26958
2468.00000   -0.25384
2468.50000   -0.23742
2469.00000   -0.22057
2469.50000   -0.20353
2470.00000   -0.18648
2470.50000   -0.16954
2471.00000   -0.15280
2471.50000   -0.13626
2472.00000   -0.11990
2472.50000   -0.10364
2473.00000   -0.08735
2473.50000   -0.07092
2474.00000   -0.05420
2474.50000   -0.03706
2475.00000   -0.01940
2475.50000   -0.00113
2476.00000    0.01775
2476.50000    0.03721
2477.00000    0.05716
2477.50000    0.07742
2478.00000    0.09775
2478.50000    0.11787
2479.00000    0.13744
2479.50000    0.15607
2480.00000    0.17337
2480.50000    0.18893
2481.00000    0.20237
2481.50000    0.21332
2482.00000    0.22148
2482.50000    0.22661
2483.00000    0.22853
2483.50000    0.22717
2484.00000    0.22253
2484.50000    0.21473
2485.00000    0.20397
2485.50000    0.19052
2486.00000    0.17475
2486.50000    0.15708
2487.00000    0.13800
2487.50000    0.11801
2488.00000    0.09763
2488.50000    0.07740
2489.00000    0.05782
2489.50000    0.03936
2490.00000    0.02245
2490.50000    0.00747
2491.00000   -0.00530
2491.50000   -0.01564
2492.00000   -0.02339
2492.50000   -0.02850
2493.00000   -0.03097
2493.50000   -0.03089
2494.00000   -0.02840
2494.50000   -0.02369
2495.00000   -0.01702
2495.50000   -0.00865
2496.00000    0.00112
2496.50000    0.01201
2497.00000    0.02372
2497.50000    0.03597
2498.00000    0.04852
2498.50000    0.06114
2499.00000    0.07366
2499.50000    0.08594
2500.00000    0.09787
2500.50000    0.10940
2501.00000    0.12048
2501.50000    0.13114
2502.00000    0.14137
2502.50000    0.15122
2503.00000    0.16073
2503.50000    0.16993
2504.00000    0.17884
2504.50000    0.18744
2505.00000    0.19572
2505.50000    0.20360
2506.00000    0.21097
2506.50000    0.21770
2507.00000    0.22359
2507.50000    0.22843
2508.00000    0.23198
2508.50000    0.23395
2509.00000    0.23407
2509.50000    0.23205
2510.00000    0.22761
2510.50000    0.22048
2511.00000    0.21043
2511.50000    0.19728
2512.00000    0.18088
2512.50000    0.16115
2513.00000    0.13810
2513.50000    0.11178
2514.00000    0.08235
2514.50000    0.05002
2515.00000    0.01510
2515.50000   -0.02203
2516.00000   -0.06091
2516.50000   -0.10104
2517.00000   -0.14185
2517.50000   -0.18273
2518.00000   -0.22304
2518.50000   -0.26213
2519.00000   -0.29935
2519.50000   -0.33405
2520.00000   -0.36564
2520.50000   -0.39354
2521.00000   -0.41727
2521.50000   -0.43638
2522.00000   -0.45054
2522.50000   -0.45950
2523.00000   -0.46311
2523.50000   -0.46132
2524.00000   -0.45420
2524.50000   -0.44190
2525.00000   -0.42470
2525.50000   -0.40296
2526.00000   -0.37710
2526.50000   -0.34765
2527.00000   -0.31517
2527.50000   -0.28026
2528.00000   -0.24355
2528.50000   -0.20565
2529.00000   -0.16718
2529.50000   -0.12873
2530.00000   -0.09081
2530.50000   -0.05391
2531.00000   -0.01841
2531.50000    0.01534
2532.00000    0.04712
2532.50000    0.07676
2533.00000    0.10418
2533.50000    0.12936
2534.00000    0.15236
2534.50000    0.17328
2535.00000    0.19225
2535.50000    0.20943
2536.00000    0.22498
2536.50000    0.23907
2537.00000    0.25183
2537.50000    0.26336
2538.00000    0.27372
2538.50000    0.28293
2539.00000    0.29096
2539.50000    0.29771
2540.00000    0.30306
2540.50000    0.30684
2541.00000    0.30884
2541.50000    0.30884
2542.00000    0.30661
2542.50000    0.30194
2543.00000    0.29461
2543.50000    0.28445
2544.00000    0.27134
2544.50000    0.25522
2545.00000    0.23607
2545.50000    0.21397
2546.00000    0.18906
2546.50000    0.16157
2547.00000    0.13179
2547.50000    0.10010
2548.00000    0.06693
2548.50000    0.03276
2549.00000   -0.00185
2549.50000   -0.03637
2550.00000   -0.07021
2550.50000   -0.10280
2551.00000   -0.13360
2551.50000   -0.16209
2552.00000   -0.18783
2552.50000   -0.21043
2553.00000   -0.22960
2553.50000   -0.24511
2554.00000   -0.25688
2554.50000   -0.26489
2555.00000   -0.26924
2555.50000   -0.27013
2556.00000   -0.26786
2556.50000   -0.26277
2557.00000   -0.25529
2557.50000   -0.24589
2558.00000   -0.23504
2558.50000   -0.22322
2559.00000   -0.21090
2559.50000   -0.19849
2560.00000   -0.18636
2560.50000   -0.17482
2561.00000   -0.16407
2561.50000   -0.15427
2562.00000   -0.14547
2562.50000   -0.13768
2563.00000   -0.13081
2563.50000   -0.12475
2564.00000   -0.11935
2564.50000   -0.11445
2565.00000   -0.10986
2565.50000   -0.10545
2566.00000   -0.10109
2566.50000   -0.09670
2567.00000   -0.09223
2567.50000   -0.08769
2568.00000   -0.08312
2568.50000   -0.07859
2569.00000   -0.07421
2569.50000   -0.07008
2570.00000   -0.06629
2570.50000   -0.06292
2571.00000   -0.06001
2571.50000   -0.05755
2572.00000   -0.05549
2572.50000   -0.05369
2573.00000   -0.05200
2573.50000   -0.05017
2574.00000   -0.04795
2574.50000   -0.04505
2575.00000   -0.04116
2575.50000   -0.03599
2576.00000   -0.02927
2576.50000   -0.02079
2577.00000   -0.01039
2577.50000    0.00202
2578.00000    0.01645
2578.50000    0.03282
2579.00000    0.05096
2579.50000    0.07063
2580.00000    0.09154
2580.50000    0.11330
2581.00000    0.13552
2581.50000    0.15777
2582.00000    0.17962
2582.50000    0.20065
2583.00000    0.22046
2583.50000    0.23869
2584.00000    0.25505
2584.50000    0.26927
2585.00000    0.28118
2585.50000    0.29063
2586.00000    0.29756
2586.50000    0.30195
2587.00000    0.30384
2587.50000    0.30328
2588.00000    0.30040
2588.50000    0.29532
2589.00000    0.28820
2589.50000    0.27920
2590.00000    0.26849
2590.50000    0.25625
2591.00000    0.24264
2591.50000    0.22784
2592.00000    0.21198
2592.50000    0.19522
2593.00000    0.17768
2593.50000    0.15948
2594.00000    0.14071
2594.50000    0.12144
2595.00000    0.10174
2595.50000    0.08165
2596.00000    0.06118
2596.50000    0.04035
2597.00000    0.01918
2597.50000   -0.00235
2598.00000   -0.02421
2598.50000   -0.04640
2599.00000   -0.06888
2599.50000   -0.09156
2600.00000   -0.11435
2600.50000   -0.13708
2601.00000   -0.15957
2601.50000   -0.18155
2602.00000   -0.20273
2602.50000   -0.22276
2603.00000   -0.24124
2603.50000   -0.25776
2604.00000   -0.27190
2604.50000   -0.28322
2605.00000   -0.29134
2605.50000   -0.29590
2606.00000   -0.29660
2606.50000   -0.29324
2607.00000   -0.28570
2607.50000   -0.27398
2608.00000   -0.25821
2608.50000   -0.23862
2609.00000   -0.21558
2609.50000   -0.18955
2610.00000   -0.16112
2610.50000   -0.13093
2611.00000   -0.09970
2611.50000   -0.06817
2612.00000   -0.03710
2612.50000   -0.00721
2613.00000    0.02081
2613.50000    0.04634
2614.00000    0.06887
2614.50000    0.08799
2615.00000    0.10341
2615.50000    0.11496
2616.00000    0.12262
2616.50000    0.12647
2617.00000    0.12670
2617.50000    0.12361
2618.00000    0.11757
2618.50000    0.10902
2619.00000    0.09842
2619.50000    0.08624
2620.00000    0.07298
2620.50000    0.05907
2621.00000    0.04494
2621.50000    0.03095
2622.00000    0.01742
2622.50000    0.00459
2623.00000   -0.00737
2623.50000   -0.01832
2624.00000   -0.02820
2624.50000   -0.03698
2625.00000   -0.04470
2625.50000   -0.05139
2626.00000   -0.05714
2626.50000   -0.06203
2627.00000   -0.06615
2627.50000   -0.06958
2628.00000   -0.07242
2628.50000   -0.07472
2629.00000   -0.07656
2629.50000   -0.07796
2630.00000   -0.07895
2630.50000   -0.07955
2631.00000   -0.07974
2631.50000   -0.07951
2632.00000   -0.07882
2632.50000   -0.07763
2633.00000   -0.07587
2633.50000   -0.07348
2634.00000   -0.07040
2634.50000   -0.06653
2635.00000   -0.06181
2635.50000   -0.05613
2636.00000   -0.04942
2636.50000   -0.04158
2637.00000   -0.03253
2637.50000   -0.02218
2638.00000   -0.01045
2638.50000    0.00274
2639.00000    0.01747
2639.50000    0.03381
2640.00000    0.05183
2640.50000    0.07160
2641.00000    0.09319
2641.50000    0.11667
2642.00000    0.14211
2642.50000    0.16956
2643.00000    0.19910
2643.50000    0.23079
2644.00000    0.26467
2644.50000    0.30080
2645.00000    0.33922
2645.50000    0.37994
2646.00000    0.42299
2646.50000    0.46837
2647.00000    0.51608
2647.50000    0.56609
2648.00000    0.61841
2648.50000    0.67302
2649.00000    0.72993
2649.50000    0.78919
2650.00000    0.85084
2650.50000    0.91499
2651.00000    0.98179
2651.50000    1.05145
2652.00000    1.12421
2652.50000    1.20038
2653.00000    1.28032
2653.50000    1.36441
2654.00000    1.45309
2654.50000    1.54678
2655.00000    1.64589
2655.50000    1.75084
2656.00000    1.86197
2656.50000    1.97958
2657.00000    2.10386
2657.50000    2.23495
2658.00000    2.37285
2658.50000    2.51749
2659.00000    2.66868
2659.50000    2.82613
2660.00000    2.98948
2660.50000    3.15830
2661.00000    3.33210
2661.50000    3.51036
2662.00000    3.69258
2662.50000    3.87822
2663.00000    4.06679
2663.50000    4.25785
2664.00000    4.45099
2664.50000    4.64585
2665.00000    4.84213
2665.50000    5.03959
2666.00000    5.23800
2666.50000    5.43717
2667.00000    5.63695
2667.50000    5.83715
2668.00000    6.03760
2668.50000    6.23809
2669.00000    6.43838
2669.50000    6.63819
2670.00000    6.83718
2670.50000    7.03500
2671.00000    7.23119
2671.50000    7.42531
2672.00000    7.61683
2672.50000    7.80522
2673.00000    7.98991
2673.50000    8.17031
2674.00000    8.34581
2674.50000    8.51581
2675.00000    8.67969
2675.50000    8.83681
2676.00000    8.98657
2676.50000    9.12835
2677.00000    9.26151
2677.50000    9.38547
2678.00000    9.49960
2678.50000    9.60334
2679.00000    9.69610
2679.50000    9.77737
2680.00000    9.84665
2680.50000    9.90349
2681.00000    9.94752
2681.50000    9.97841
2682.00000    9.99595
2682.50000   10.00000
2683.00000    9.99051
2683.50000    9.96755
2684.00000    9.93126
2684.50000    9.88193
2685.00000    9.81988
2685.50000    9.74558
2686.00000    9.65952
2686.50000    9.56230
2687.00000    9.45453
2687.50000    9.33690
2688.00000    9.21010
2688.50000    9.07483
2689.00000    8.93182
2689.50000    8.78178
2690.00000    8.62540
2690.50000    8.46336
2691.00000    8.29634
2691.50000    8.12495
2692.00000    7.94982
2692.50000    7.77151
2693.00000    7.59060
2693.50000    7.40760
2694.00000    7.22300
2694.50000    7.03729
2695.00000    6.85090
2695.50000    6.66424
2696.00000    6.47768
2696.50000    6.29157
2697.00000    6.10622
2697.50000    5.92191
2698.00000    5.73890
2698.50000    5.55741
2699.00000    5.37763
2699.50000    5.19975
2700.00000    5.02392
2700.50000    4.85031
2701.00000    4.67904
2701.50000    4.51028
2702.00000    4.34417
2702.50000    4.18086
2703.00000    4.02052
2703.50000    3.86334
2704.00000    3.70949
2704.50000    3.55916
2705.00000    3.41257
2705.50000    3.26989
2706.00000    3.13133
2706.50000    2.99707
2707.00000    2.86726
2707.50000    2.74205
2708.00000    2.62156
2708.50000    2.50588
2709.00000    2.39505
2709.50000    2.28912
2710.00000    2.18808
2710.50000    2.09189
2711.00000    2.00051
2711.50000    1.91385
2712.00000    1.83182
2712.50000    1.75430
2713.00000    1.68115
2713.50000    1.61223
2714.00000    1.54737
2714.50000    1.48638
2715.00000    1.42907
2715.50000    1.37520
2716.00000    1.32453
2716.50000    1.27678
2717.00000    1.23166
2717.50000    1.18883
2718.00000    1.14796
2718.50000    1.10867
2719.00000    1.07062
2719.50000    1.03342
2720.00000    0.99672
2720.50000    0.96019
2721.00000    0.92353
2721.50000    0.88650
2722.00000    0.84890
2722.50000    0.81061
2723.00000    0.77157
2723.50000    0.73180
2724.00000    0.69138
2724.50000    0.65045
2725.00000    0.60922
2725.50000    0.56793
2726.00000    0.52684
2726.50000    0.48624
2727.00000    0.44641
2727.50000    0.40761
2728.00000    0.37009
2728.50000    0.33405
2729.00000    0.29965
2729.50000    0.26702
2730.00000    0.23625
2730.50000    0.20740
2731.00000    0.18048
2731.50000    0.15551
2732.00000    0.13252
2732.50000    0.11150
2733.00000    0.09249
2733.50000    0.07552
2734.00000    0.06064
2734.50000    0.04791
2735.00000    0.03741
2735.50000    0.02919
2736.00000    0.02328
2736.50000    0.01969
2737.00000    0.01837
2737.50000    0.01921
2738.00000    0.02203
2738.50000    0.02658
2739.00000    0.03254
2739.50000    0.03950
2740.00000    0.04700
2740.50000    0.05456
2741.00000    0.06165
2741.50000    0.06774
2742.00000    0.07234
2742.50000    0.07497
2743.00000    0.07526
2743.50000    0.07289
2744.00000    0.06765
2744.50000    0.05943
2745.00000    0.04821
2745.50000    0.03410
2746.00000    0.01730
2746.50000   -0.00194
2747.00000   -0.02328
2747.50000   -0.04632
2748.00000   -0.07067
2748.50000   -0.09590
2749.00000   -0.12159
2749.50000   -0.14733
2750.00000   -0.17274
2750.50000   -0.19747
2751.00000   -0.22117
2751.50000   -0.24355
2752.00000   -0.26433
2752.50000   -0.28323
2753.00000   -0.30000
2753.50000   -0.31437
2754.00000   -0.32610
2754.50000   -0.33492
2755.00000   -0.34058
2755.50000   -0.34283
2756.00000   -0.34146
2756.50000   -0.33624
2757.00000   -0.32703
2757.50000   -0.31370
2758.00000   -0.29622
2758.50000   -0.27462
2759.00000   -0.24900
2759.50000   -0.21959
2760.00000   -0.18669
2760.50000   -0.15067
2761.00000   -0.11202
2761.50000   -0.07129
2762.00000   -0.02907
2762.50000    0.01399
2763.00000    0.05722
2763.50000    0.09998
2764.00000    0.14161
2764.50000    0.18151
2765.00000    0.21915
2765.50000    0.25406
2766.00000    0.28584
2766.50000    0.31421
2767.00000    0.33896
2767.50000    0.35998
2768.00000    0.37725
2768.50000    0.39084
2769.00000    0.40088
2769.50000    0.40757
2770.00000    0.41114
2770.50000    0.41184
2771.00000    0.40995
2771.50000    0.40573
2772.00000    0.39943
2772.50000    0.39128
2773.00000    0.38146
2773.50000    0.37010
2774.00000    0.35730
2774.50000    0.34313
2775.00000    0.32759
2775.50000    0.31068
2776.00000    0.29236
2776.50000    0.27259
2777.00000    0.25133
2777.50000    0.22857
2778.00000    0.20430
2778.50000    0.17857
2779.00000    0.15148
2779.50000    0.12316
2780.00000    0.09381
2780.50000    0.06368
2781.00000    0.03308
2781.50000    0.00235
2782.00000   -0.02812
2782.50000   -0.05792
2783.00000   -0.08661
2783.50000   -0.11377
2784.00000   -0.13895
2784.50000   -0.16176
2785.00000   -0.18179
2785.50000   -0.19872
2786.00000   -0.21223
2786.50000   -0.22207
2787.00000   -0.22805
2787.50000   -0.23004
2788.00000   -0.22797
2788.50000   -0.22185
2789.00000   -0.21176
2789.50000   -0.19785
2790.00000   -0.18034
2790.50000   -0.15952
2791.00000   -0.13575
2791.50000   -0.10945
2792.00000   -0.08111
2792.50000   -0.05123
2793.00000   -0.02039
2793.50000    0.01085
2794.00000    0.04190
2794.50000    0.07220
2795.00000    0.10120
2795.50000    0.12840
2796.00000    0.15336
2796.50000    0.17572
2797.00000    0.19518
2797.50000    0.21155
2798.00000    0.22472
2798.50000    0.23467
2799.00000    0.24146
2799.50000    0.24523
2800.00000    0.24619
2800.50000    0.24459
2801.00000    0.24071
2801.50000    0.23485
2802.00000    0.22732
2802.50000    0.21841
2803.00000    0.20838
2803.50000    0.19747
2804.00000    0.18587
2804.50000    0.17374
2805.00000    0.16118
2805.50000    0.14826
2806.00000    0.13504
2806.50000    0.12152
2807.00000    0.10770
2807.50000    0.09357
2808.00000    0.07909
2808.50000    0.06425
2809.00000    0.04902
2809.50000    0.03337
2810.00000    0.01729
2810.50000    0.00076
2811.00000   -0.01623
2811.50000   -0.03369
2812.00000   -0.05163
2812.50000   -0.07006
2813.00000   -0.08897
2813.50000   -0.10835
2814.00000   -0.12817
2814.50000   -0.14837
2815.00000   -0.16888
2815.50000   -0.18956
2816.00000   -0.21025
2816.50000   -0.23071
2817.00000   -0.25068
2817.50000   -0.26982
2818.00000   -0.28776
2818.50000   -0.30406
2819.00000   -0.31828
2819.50000   -0.32995
2820.00000   -0.33862
2820.50000   -0.34384
2821.00000   -0.34524
2821.50000   -0.34249
2822.00000   -0.33536
2822.50000   -0.32372
2823.00000   -0.30756
2823.50000   -0.28700
2824.00000   -0.26227
2824.50000   -0.23374
2825.00000   -0.20187
2825.50000   -0.16722
2826.00000   -0.13045
2826.50000   -0.09224
2827.00000   -0.05331
2827.50000   -0.01437
2828.00000    0.02388
2828.50000    0.06081
2829.00000    0.09585
2829.50000    0.12849
2830.00000    0.15834
2830.50000    0.18509
2831.00000    0.20853
2831.50000    0.22854
2832.00000    0.24507
2832.50000    0.25815
2833.00000    0.26787
2833.50000    0.27436
2834.00000    0.27777
2834.50000    0.27829
2835.00000    0.27612
2835.50000    0.27145
2836.00000    0.26450
2836.50000    0.25545
2837.00000    0.24453
2837.50000    0.23192
2838.00000    0.21786
2838.50000    0.20254
2839.00000    0.18621
2839.50000    0.16909
2840.00000    0.15142
2840.50000    0.13347
2841.00000    0.11548
2841.50000    0.09769
2842.00000    0.08034
2842.50000    0.06367
2843.00000    0.04786
2843.50000    0.03309
2844.00000    0.01950
2844.50000    0.00719
2845.00000   -0.00378
2845.50000   -0.01337
2846.00000   -0.02160
2846.50000   -0.02851
2847.00000   -0.03415
2847.50000   -0.03862
2848.00000   -0.04202
2848.50000   -0.04447
2849.00000   -0.04610
2849.50000   -0.04703
2850.00000   -0.04740
2850.50000   -0.04736
2851.00000   -0.04705
2851.50000   -0.04660
2852.00000   -0.04618
2852.50000   -0.04593
2853.00000   -0.04602
2853.50000   -0.04659
2854.00000   -0.04779
2854.50000   -0.04979
2855.00000   -0.05271
2855.50000   -0.05667
2856.00000   -0.06177
2856.50000   -0.06807
2857.00000   -0.07561
2857.50000   -0.08439
2858.00000   -0.09434
2858.50000   -0.10536
2859.00000   -0.11732
2859.50000   -0.13001
2860.00000   -0.14321
2860.50000   -0.15664
2861.00000   -0.16999
2861.50000   -0.18293
2862.00000   -0.19513
2862.50000   -0.20622
2863.00000   -0.21587
2863.50000   -0.22373
2864.00000   -0.22949
2864.50000   -0.23288
2865.00000   -0.23365
2865.50000   -0.23162
2866.00000   -0.22665
2866.50000   -0.21867
2867.00000   -0.20767
2867.50000   -0.19372
2868.00000   -0.17696
2868.50000   -0.15760
2869.00000   -0.13591
2869.50000   -0.11225
2870.00000   -0.08700
2870.50000   -0.06062
2871.00000   -0.03359
2871.50000   -0.00640
2872.00000    0.02044
2872.50000    0.04644
2873.00000    0.07115
2873.50000    0.09416
2874.00000    0.11513
2874.50000    0.13381
2875.00000    0.15002
2875.50000    0.16370
2876.00000    0.17487
2876.50000    0.18366
2877.00000    0.19029
2877.50000    0.19505
2878.00000    0.19831
2878.50000    0.20045
2879.00000    0.20191
2879.50000    0.20310
2880.00000    0.20440
2880.50000    0.20616
2881.00000    0.20863
2881.50000    0.21200
2882.00000    0.21634
2882.50000    0.22162
2883.00000    0.22772
2883.50000    0.23437
2884.00000    0.24126
2884.50000    0.24796
2885.00000    0.25402
2885.50000    0.25893
2886.00000    0.26218
2886.50000    0.26326
2887.00000    0.26171
2887.50000    0.25713
2888.00000    0.24919
2888.50000    0.23765
2889.00000    0.22238
2889.50000    0.20335
2890.00000    0.18063
2890.50000    0.15440
2891.00000    0.12493
2891.50000    0.09256
2892.00000    0.05770
2892.50000    0.02080
2893.00000   -0.01769
2893.50000   -0.05728
2894.00000   -0.09753
2894.50000   -0.13804
2895.00000   -0.17845
2895.50000   -0.21848
2896.00000   -0.25793
2896.50000   -0.29667
2897.00000   -0.33468
2897.50000   -0.37200
2898.00000   -0.40875
2898.50000   -0.44506
2899.00000   -0.48112
2899.50000   -0.51708
