1200.50000   -0.25012
1201.00000   -0.22195
1201.50000   -0.19393
1202.00000   -0.16620
1202.50000   -0.13891
1203.00000   -0.11224
1203.50000   -0.08637
1204.00000   -0.06147
1204.50000   -0.03772
1205.00000   -0.01525
1205.50000    0.00581
1206.00000    0.02538
1206.50000    0.04338
1207.00000    0.05981
1207.50000    0.07467
1208.00000    0.08801
1208.50000    0.09992
1209.00000    0.11052
1209.50000    0.11997
1210.00000    0.12843
1210.50000    0.13611
1211.00000    0.14322
1211.50000    0.15000
1212.00000    0.15667
1212.50000    0.16348
1213.00000    0.17066
1213.50000    0.17841
1214.00000    0.18694
1214.50000    0.19641
1215.00000    0.20697
1215.50000    0.21870
1216.00000    0.23168
1216.50000    0.24589
1217.00000    0.26130
1217.50000    0.27780
1218.00000    0.29524
1218.50000    0.31338
1219.00000    0.33195
1219.50000    0.35062
1220.00000    0.36900
1220.50000    0.38667
1221.00000    0.40316
1221.50000    0.41799
1222.00000    0.43068
1222.50000    0.44073
1223.00000    0.44767
1223.50000    0.45107
1224.00000    0.45052
1224.50000    0.44570
1225.00000    0.43634
1225.50000    0.42226
1226.00000    0.40338
1226.50000    0.37970
1227.00000    0.35135
1227.50000    0.31854
1228.00000    0.28160
1228.50000    0.24095
1229.00000    0.19709
1229.50000    0.15060
1230.00000    0.10212
1230.50000    0.05234
1231.00000    0.00199
1231.50000   -0.04820
1232.00000   -0.09752
1232.50000   -0.14524
1233.00000   -0.19070
1233.50000   -0.23328
1234.00000   -0.27244
1234.50000   -0.30769
1235.00000   -0.33867
1235.50000   -0.36508
1236.00000   -0.38673
1236.50000   -0.40355
1237.00000   -0.41554
1237.50000   -0.42282
1238.00000   -0.42558
1238.50000   -0.42409
1239.00000   -0.41869
1239.50000   -0.40978
1240.00000   -0.39779
1240.50000   -0.38318
1241.00000   -0.36643
1241.50000   -0.34801
1242.00000   -0.32839
1242.50000   -0.30799
1243.00000   -0.28721
1243.50000   -0.26639
1244.00000   -0.24583
1244.50000   -0.22576
1245.00000   -0.20634
1245.50000   -0.18767
1246.00000   -0.16982
1246.50000   -0.15276
1247.00000   -0.13644
1247.50000   -0.12076
1248.00000   -0.10561
1248.50000   -0.09083
1249.00000   -0.07627
1249.50000   -0.06178
1250.00000   -0.04723
1250.50000   -0.03249
1251.00000   -0.01748
1251.50000   -0.00215
1252.00000    0.01353
1252.50000    0.02953
1253.00000    0.04581
1253.50000    0.06226
1254.00000    0.07878
1254.50000    0.09522
1255.00000    0.11145
1255.50000    0.12730
1256.00000    0.14263
1256.50000    0.15730
1257.00000    0.17118
1257.50000    0.18419
1258.00000    0.19625
1258.50000    0.20732
1259.00000    0.21738
1259.50000    0.22644
1260.00000    0.23454
1260.50000    0.24173
1261.00000    0.24809
1261.50000    0.25366
1262.00000    0.25853
1262.50000    0.26275
1263.00000    0.26636
1263.50000    0.26938
1264.00000    0.27180
1264.50000    0.27358
1265.00000    0.27466
1265.50000    0.27496
1266.00000    0.27434
1266.50000    0.27268
1267.00000    0.26982
1267.50000    0.26559
1268.00000    0.25982
1268.50000    0.25235
1269.00000    0.24302
1269.50000    0.23170
1270.00000    0.21827
1270.50000    0.20266
1271.00000    0.18483
1271.50000    0.16478
1272.00000    0.14253
1272.50000    0.11818
1273.00000    0.09184
1273.50000    0.06369
1274.00000    0.03394
1274.50000    0.00283
1275.00000   -0.02934
1275.50000   -0.06227
1276.00000   -0.09560
1276.50000   -0.12896
1277.00000   -0.16196
1277.50000   -0.19420
1278.00000   -0.22525
1278.50000   -0.25471
1279.00000   -0.28215
1279.50000   -0.30716
1280.00000   -0.32936
1280.50000   -0.34836
1281.00000   -0.36381
1281.50000   -0.37541
1282.00000   -0.38286
1282.50000   -0.38593
1283.00000   -0.38443
1283.50000   -0.37824
1284.00000   -0.36727
1284.50000   -0.35152
1285.00000   -0.33105
1285.50000   -0.30599
1286.00000   -0.27654
1286.50000   -0.24298
1287.00000   -0.20565
1287.50000   -0.16497
1288.00000   -0.12143
1288.50000   -0.07555
1289.00000   -0.02792
1289.50000    0.02083
1290.00000    0.07006
1290.50000    0.11909
1291.00000    0.16725
1291.50000    0.21388
1292.00000    0.25834
1292.50000    0.30002
1293.00000    0.33837
1293.50000    0.37289
1294.00000    0.40317
1294.50000    0.42887
1295.00000    0.44973
1295.50000    0.46560
1296.00000    0.47641
1296.50000    0.48219
1297.00000    0.48306
1297.50000    0.47920
1298.00000    0.47089
1298.50000    0.45843
1299.00000    0.44222
1299.50000    0.42265
1300.00000    0.40017
1300.50000    0.37521
1301.00000    0.34823
1301.50000    0.31965
1302.00000    0.28989
1302.50000    0.25935
1303.00000    0.22838
1303.50000    0.19730
1304.00000    0.16641
1304.50000    0.13596
1305.00000    0.10619
1305.50000    0.07730
1306.00000    0.04947
1306.50000    0.02288
1307.00000   -0.00232
1307.50000   -0.02598
1308.00000   -0.04795
1308.50000   -0.06810
1309.00000   -0.08630
1309.50000   -0.10242
1310.00000   -0.11635
1310.50000   -0.12799
1311.00000   -0.13726
1311.50000   -0.14410
1312.00000   -0.14848
1312.50000   -0.15040
1313.00000   -0.14990
1313.50000   -0.14706
1314.00000   -0.14197
1314.50000   -0.13478
1315.00000   -0.12563
1315.50000   -0.11472
1316.00000   -0.10224
1316.50000   -0.08839
1317.00000   -0.07335
1317.50000   -0.05730
1318.00000   -0.04041
1318.50000   -0.02280
1319.00000   -0.00456
1319.50000    0.01425
1320.00000    0.03362
1320.50000    0.05358
1321.00000    0.07420
1321.50000    0.09558
1322.00000    0.11786
1322.50000    0.14120
1323.00000    0.16577
1323.50000    0.19175
1324.00000    0.21935
1324.50000    0.24873
1325.00000    0.28009
1325.50000    0.31360
1326.00000    0.34941
1326.50000    0.38766
1327.00000    0.42851
1327.50000    0.47208
1328.00000    0.51848
1328.50000    0.56785
1329.00000    0.62031
1329.50000    0.67598
1330.00000    0.73497
1330.50000    0.79743
1331.00000    0.86345
1331.50000    0.93315
1332.00000    1.00662
1332.50000    1.08391
1333.00000    1.16504
1333.50000    1.24998
1334.00000    1.33862
1334.50000    1.43082
1335.00000    1.52630
1335.50000    1.62473
1336.00000    1.72569
1336.50000    1.82863
1337.00000    1.93295
1337.50000    2.03793
1338.00000    2.14281
1338.50000    2.24674
1339.00000    2.34885
1339.50000    2.44823
1340.00000    2.54398
1340.50000    2.63522
1341.00000    2.72111
1341.50000    2.80089
1342.00000    2.87385
1342.50000    2.93939
1343.00000    2.99703
1343.50000    3.04637
1344.00000    3.08717
1344.50000    3.11926
1345.00000    3.14261
1345.50000    3.15729
1346.00000    3.16345
1346.50000    3.16134
1347.00000    3.15125
1347.50000    3.13356
1348.00000    3.10865
1348.50000    3.07693
1349.00000    3.03885
1349.50000    2.99483
1350.00000    2.94530
1350.50000    2.89067
1351.00000    2.83133
1351.50000    2.76768
1352.00000    2.70009
1352.50000    2.62891
1353.00000    2.55449
1353.50000    2.47718
1354.00000    2.39731
1354.50000    2.31522
1355.00000    2.23125
1355.50000    2.14575
1356.00000    2.05905
1356.50000    1.97149
1357.00000    1.88341
1357.50000    1.79514
1358.00000    1.70699
1358.50000    1.61927
1359.00000    1.53225
1359.50000    1.44620
1360.00000    1.36136
1360.50000    1.27794
1361.00000    1.19614
1361.50000    1.11612
1362.00000    1.03805
1362.50000    0.96205
1363.00000    0.88826
1363.50000    0.81679
1364.00000    0.74777
1364.50000    0.68130
1365.00000    0.61749
1365.50000    0.55647
1366.00000    0.49833
1366.50000    0.44320
1367.00000    0.39117
1367.50000    0.34232
1368.00000    0.29674
1368.50000    0.25447
1369.00000    0.21551
1369.50000    0.17987
1370.00000    0.14747
1370.50000    0.11823
1371.00000    0.09200
1371.50000    0.06862
1372.00000    0.04785
1372.50000    0.02946
1373.00000    0.01318
1373.50000   -0.00128
1374.00000   -0.01422
1374.50000   -0.02591
1375.00000   -0.03662
1375.50000   -0.04661
1376.00000   -0.05607
1376.50000   -0.06518
1377.00000   -0.07405
1377.50000   -0.08274
1378.00000   -0.09127
1378.50000   -0.09959
1379.00000   -0.10763
1379.50000   -0.11525
1380.00000   -0.12229
1380.50000   -0.12857
1381.00000   -0.13389
1381.50000   -0.13805
1382.00000   -0.14084
1382.50000   -0.14209
1383.00000   -0.14164
1383.50000   -0.13936
1384.00000   -0.13517
1384.50000   -0.12903
1385.00000   -0.12093
1385.50000   -0.11094
1386.00000   -0.09913
1386.50000   -0.08564
1387.00000   -0.07064
1387.50000   -0.05434
1388.00000   -0.03695
1388.50000   -0.01872
1389.00000    0.00008
1389.50000    0.01919
1390.00000    0.03835
1390.50000    0.05730
1391.00000    0.07578
1391.50000    0.09355
1392.00000    0.11041
1392.50000    0.12614
1393.00000    0.14058
1393.50000    0.15356
1394.00000    0.16497
1394.50000    0.17470
1395.00000    0.18267
1395.50000    0.18882
1396.00000    0.19311
1396.50000    0.19555
1397.00000    0.19612
1397.50000    0.19485
1398.00000    0.19180
1398.50000    0.18700
1399.00000    0.18054
1399.50000    0.17251
1400.00000    0.16301
1400.50000    0.15215
1401.00000    0.14006
1401.50000    0.12689
1402.00000    0.11278
1402.50000    0.09790
1403.00000    0.08240
1403.50000    0.06647
1404.00000    0.05028
1404.50000    0.03401
1405.00000    0.01782
1405.50000    0.00191
1406.00000   -0.01359
1406.50000   -0.02851
1407.00000   -0.04271
1407.50000   -0.05609
1408.00000   -0.06852
1408.50000   -0.07993
1409.00000   -0.09026
1409.50000   -0.09945
1410.00000   -0.10750
1410.50000   -0.11439
1411.00000   -0.12015
1411.50000   -0.12481
1412.00000   -0.12843
1412.50000   -0.13105
1413.00000   -0.13277
1413.50000   -0.13367
1414.00000   -0.13385
1414.50000   -0.13339
1415.00000   -0.13243
1415.50000   -0.13106
1416.00000   -0.12941
1416.50000   -0.12761
1417.00000   -0.12579
1417.50000   -0.12407
1418.00000   -0.12259
1418.50000   -0.12148
1419.00000   -0.12087
1419.50000   -0.12088
1420.00000   -0.12162
1420.50000   -0.12318
1421.00000   -0.12561
1421.50000   -0.12894
1422.00000   -0.13317
1422.50000   -0.13825
1423.00000   -0.14407
1423.50000   -0.15047
1424.00000   -0.15726
1424.50000   -0.16418
1425.00000   -0.17094
1425.50000   -0.17718
1426.00000   -0.18255
1426.50000   -0.18666
1427.00000   -0.18914
1427.50000   -0.18961
1428.00000   -0.18774
1428.50000   -0.18326
1429.00000   -0.17593
1429.50000   -0.16562
1430.00000   -0.15229
1430.50000   -0.13598
1431.00000   -0.11687
1431.50000   -0.09523
1432.00000   -0.07144
1432.50000   -0.04596
1433.00000   -0.01935
1433.50000    0.00778
1434.00000    0.03476
1434.50000    0.06092
1435.00000    0.08560
1435.50000    0.10816
1436.00000    0.12801
1436.50000    0.14465
1437.00000    0.15766
1437.50000    0.16674
1438.00000    0.17171
1438.50000    0.17251
1439.00000    0.16922
1439.50000    0.16202
1440.00000    0.15123
1440.50000    0.13728
1441.00000    0.12066
1441.50000    0.10197
1442.00000    0.08182
1442.50000    0.06089
1443.00000    0.03983
1443.50000    0.01930
1444.00000   -0.00006
1444.50000   -0.01768
1445.00000   -0.03304
1445.50000   -0.04570
1446.00000   -0.05529
1446.50000   -0.06153
1447.00000   -0.06424
1447.50000   -0.06331
1448.00000   -0.05874
1448.50000   -0.05063
1449.00000   -0.03914
1449.50000   -0.02453
1450.00000   -0.00712
1450.50000    0.01268
1451.00000    0.03443
1451.50000    0.05761
1452.00000    0.08168
1452.50000    0.10606
1453.00000    0.13015
1453.50000    0.15333
1454.00000    0.17502
1454.50000    0.19463
1455.00000    0.21162
1455.50000    0.22549
1456.00000    0.23580
1456.50000    0.24219
1457.00000    0.24440
1457.50000    0.24226
1458.00000    0.23570
1458.50000    0.22478
1459.00000    0.20967
1459.50000    0.19067
1460.00000    0.16817
1460.50000    0.14269
1461.00000    0.11484
1461.50000    0.08529
1462.00000    0.05477
1462.50000    0.02407
1463.00000   -0.00604
1463.50000   -0.03480
1464.00000   -0.06150
1464.50000   -0.08548
1465.00000   -0.10617
1465.50000   -0.12313
1466.00000   -0.13602
1466.50000   -0.14463
1467.00000   -0.14890
1467.50000   -0.14890
1468.00000   -0.14483
1468.50000   -0.13699
1469.00000   -0.12582
1469.50000   -0.11181
1470.00000   -0.09554
1470.50000   -0.07761
1471.00000   -0.05863
1471.50000   -0.03920
1472.00000   -0.01990
1472.50000   -0.00123
1473.00000    0.01637
1473.50000    0.03256
1474.00000    0.04708
1474.50000    0.05975
1475.00000    0.07051
1475.50000    0.07938
1476.00000    0.08644
1476.50000    0.09185
1477.00000    0.09581
1477.50000    0.09856
1478.00000    0.10034
1478.50000    0.10140
1479.00000    0.10199
1479.50000    0.10231
1480.00000    0.10256
1480.50000    0.10285
1481.00000    0.10330
1481.50000    0.10396
1482.00000    0.10482
1482.50000    0.10588
1483.00000    0.10708
1483.50000    0.10835
1484.00000    0.10959
1484.50000    0.11072
1485.00000    0.11163
1485.50000    0.11222
1486.00000    0.11242
1486.50000    0.11212
1487.00000    0.11126
1487.50000    0.10975
1488.00000    0.10754
1488.50000    0.10454
1489.00000    0.10069
1489.50000    0.09592
1490.00000    0.09015
1490.50000    0.08332
1491.00000    0.07534
1491.50000    0.06614
1492.00000    0.05567
1492.50000    0.04389
1493.00000    0.03078
1493.50000    0.01635
1494.00000    0.00066
1494.50000   -0.01620
1495.00000   -0.03408
1495.50000   -0.05280
1496.00000   -0.07212
1496.50000   -0.09175
1497.00000   -0.11139
1497.50000   -0.13067
1498.00000   -0.14923
1498.50000   -0.16671
1499.00000   -0.18273
1499.50000   -0.19695
1500.00000   -0.20905
1500.50000   -0.21877
1501.00000   -0.22589
1501.50000   -0.23026
1502.00000   -0.23180
1502.50000   -0.23051
1503.00000   -0.22644
1503.50000   -0.21974
1504.00000   -0.21058
1504.50000   -0.19922
1505.00000   -0.18595
1505.50000   -0.17110
1506.00000   -0.15500
1506.50000   -0.13802
1507.00000   -0.12052
1507.50000   -0.10287
1508.00000   -0.08541
1508.50000   -0.06846
1509.00000   -0.05234
1509.50000   -0.03732
1510.00000   -0.02365
1510.50000   -0.01155
1511.00000   -0.00121
1511.50000    0.00721
1512.00000    0.01359
1512.50000    0.01783
1513.00000    0.01986
1513.50000    0.01965
1514.00000    0.01719
1514.50000    0.01251
1515.00000    0.00567
1515.50000   -0.00322
1516.00000   -0.01402
1516.50000   -0.02657
1517.00000   -0.04066
1517.50000   -0.05604
1518.00000   -0.07243
1518.50000   -0.08955
1519.00000   -0.10706
1519.50000   -0.12462
1520.00000   -0.14190
1520.50000   -0.15854
1521.00000   -0.17421
1521.50000   -0.18859
1522.00000   -0.20137
1522.50000   -0.21229
1523.00000   -0.22114
1523.50000   -0.22773
1524.00000   -0.23194
1524.50000   -0.23369
1525.00000   -0.23296
1525.50000   -0.22976
1526.00000   -0.22418
1526.50000   -0.21634
1527.00000   -0.20640
1527.50000   -0.19456
1528.00000   -0.18104
1528.50000   -0.16609
1529.00000   -0.14998
1529.50000   -0.13296
1530.00000   -0.11532
1530.50000   -0.09731
1531.00000   -0.07919
1531.50000   -0.06117
1532.00000   -0.04348
1532.50000   -0.02629
1533.00000   -0.00974
1533.50000    0.00604
1534.00000    0.02098
1534.50000    0.03504
1535.00000    0.04821
1535.50000    0.06050
1536.00000    0.07196
1536.50000    0.08268
1537.00000    0.09275
1537.50000    0.10227
1538.00000    0.11136
1538.50000    0.12014
1539.00000    0.12872
1539.50000    0.13720
1540.00000    0.14568
1540.50000    0.15419
1541.00000    0.16277
1541.50000    0.17142
1542.00000    0.18009
1542.50000    0.18871
1543.00000    0.19715
1543.50000    0.20526
1544.00000    0.21287
1544.50000    0.21975
1545.00000    0.22569
1545.50000    0.23044
1546.00000    0.23377
1546.50000    0.23545
1547.00000    0.23529
1547.50000    0.23311
1548.00000    0.22877
1548.50000    0.22221
1549.00000    0.21338
1549.50000    0.20234
1550.00000    0.18916
1550.50000    0.17402
1551.00000    0.15713
1551.50000    0.13875
1552.00000    0.11921
1552.50000    0.09884
1553.00000    0.07803
1553.50000    0.05714
1554.00000    0.03657
1554.50000    0.01667
1555.00000   -0.00221
1555.50000   -0.01980
1556.00000   -0.03582
1556.50000   -0.05009
1557.00000   -0.06246
1557.50000   -0.07283
1558.00000   -0.08117
1558.50000   -0.08747
1559.00000   -0.09174
1559.50000   -0.09404
1560.00000   -0.09442
1560.50000   -0.09291
1561.00000   -0.08954
1561.50000   -0.08430
1562.00000   -0.07712
1562.50000   -0.06791
1563.00000   -0.05649
1563.50000   -0.04264
1564.00000   -0.02608
1564.50000   -0.00647
1565.00000    0.01657
1565.50000    0.04346
1566.00000    0.07464
1566.50000    0.11057
1567.00000    0.15168
1567.50000    0.19840
1568.00000    0.25112
1568.50000    0.31018
1569.00000    0.37589
1569.50000    0.44847
1570.00000    0.52809
1570.50000    0.61487
1571.00000    0.70887
1571.50000    0.81008
1572.00000    0.91845
1572.50000    1.03388
1573.00000    1.15626
1573.50000    1.28541
1574.00000    1.42118
1574.50000    1.56337
1575.00000    1.71178
1575.50000    1.86619
1576.00000    2.02637
1576.50000    2.19209
1577.00000    2.36308
1577.50000    2.53905
1578.00000    2.71966
1578.50000    2.90454
1579.00000    3.09324
1579.50000    3.28527
1580.00000    3.48005
1580.50000    3.67693
1581.00000    3.87517
1581.50000    4.07395
1582.00000    4.27237
1582.50000    4.46946
1583.00000    4.66417
1583.50000    4.85537
1584.00000    5.04192
1584.50000    5.22261
1585.00000    5.39620
1585.50000    5.56146
1586.00000    5.71715
1586.50000    5.86207
1587.00000    5.99503
1587.50000    6.11493
1588.00000    6.22070
1588.50000    6.31140
1589.00000    6.38614
1589.50000    6.44420
1590.00000    6.48495
1590.50000    6.50791
1591.00000    6.51274
1591.50000    6.49926
1592.00000    6.46746
1592.50000    6.41748
1593.00000    6.34964
1593.50000    6.26444
1594.00000    6.16253
1594.50000    6.04474
1595.00000    5.91206
1595.50000    5.76563
1596.00000    5.60673
1596.50000    5.43674
1597.00000    5.25717
1597.50000    5.06959
1598.00000    4.87566
1598.50000    4.67703
1599.00000    4.47538
1599.50000    4.27236
1600.00000    4.06959
1600.50000    3.86859
1601.00000    3.67078
1601.50000    3.47748
1602.00000    3.28986
1602.50000    3.10894
1603.00000    2.93555
1603.50000    2.77040
1604.00000    2.61398
1604.50000    2.46667
1605.00000    2.32864
1605.50000    2.19995
1606.00000    2.08051
1606.50000    1.97012
1607.00000    1.86850
1607.50000    1.77528
1608.00000    1.69006
1608.50000    1.61239
1609.00000    1.54182
1609.50000    1.47790
1610.00000    1.42022
1610.50000    1.36839
1611.00000    1.32206
1611.50000    1.28094
1612.00000    1.24477
1612.50000    1.21335
1613.00000    1.18651
1613.50000    1.16412
1614.00000    1.14604
1614.50000    1.13216
1615.00000    1.12236
1615.50000    1.11650
1616.00000    1.11438
1616.50000    1.11581
1617.00000    1.12051
1617.50000    1.12817
1618.00000    1.13843
1618.50000    1.15085
1619.00000    1.16497
1619.50000    1.18030
1620.00000    1.19628
1620.50000    1.21237
1621.00000    1.22802
1621.50000    1.24267
1622.00000    1.25581
1622.50000    1.26694
1623.00000    1.27563
1623.50000    1.28152
1624.00000    1.28428
1624.50000    1.28369
1625.00000    1.27960
1625.50000    1.27190
1626.00000    1.26060
1626.50000    1.24573
1627.00000    1.22741
1627.50000    1.20579
1628.00000    1.18107
1628.50000    1.15345
1629.00000    1.12317
1629.50000    1.09048
1630.00000    1.05561
1630.50000    1.01879
1631.00000    0.98023
1631.50000    0.94013
1632.00000    0.89866
1632.50000    0.85597
1633.00000    0.81218
1633.50000    0.76740
1634.00000    0.72174
1634.50000    0.67528
1635.00000    0.62810
1635.50000    0.58030
1636.00000    0.53198
1636.50000    0.48324
1637.00000    0.43424
1637.50000    0.38513
1638.00000    0.33609
1638.50000    0.28734
1639.00000    0.23912
1639.50000    0.19170
1640.00000    0.14535
1640.50000    0.10038
1641.00000    0.05709
1641.50000    0.01579
1642.00000   -0.02322
1642.50000   -0.05963
1643.00000   -0.09318
1643.50000   -0.12363
1644.00000   -0.15075
1644.50000   -0.17438
1645.00000   -0.19439
1645.50000   -0.21068
1646.00000   -0.22324
1646.50000   -0.23206
1647.00000   -0.23722
1647.50000   -0.23884
1648.00000   -0.23705
1648.50000   -0.23206
1649.00000   -0.22409
1649.50000   -0.21341
1650.00000   -0.20028
1650.50000   -0.18501
1651.00000   -0.16790
1651.50000   -0.14925
1652.00000   -0.12938
1652.50000   -0.10858
1653.00000   -0.08713
1653.50000   -0.06531
1654.00000   -0.04334
1654.50000   -0.02145
1655.00000    0.00019
1655.50000    0.02143
1656.00000    0.04216
1656.50000    0.06232
1657.00000    0.08187
1657.50000    0.10085
1658.00000    0.11929
1658.50000    0.13729
1659.00000    0.15497
1659.50000    0.17248
1660.00000    0.18997
1660.50000    0.20764
1661.00000    0.22564
1661.50000    0.24413
1662.00000    0.26326
1662.50000    0.28312
1663.00000    0.30377
1663.50000    0.32522
1664.00000    0.34742
1664.50000    0.37025
1665.00000    0.39354
1665.50000    0.41705
1666.00000    0.44050
1666.50000    0.46355
1667.00000    0.48582
1667.50000    0.50691
1668.00000    0.52641
1668.50000    0.54391
1669.00000    0.55903
1669.50000    0.57141
1670.00000    0.58073
1670.50000    0.58676
1671.00000    0.58929
1671.50000    0.58821
1672.00000    0.58348
1672.50000    0.57514
1673.00000    0.56328
1673.50000    0.54807
1674.00000    0.52972
1674.50000    0.50849
1675.00000    0.48466
1675.50000    0.45854
1676.00000    0.43043
1676.50000    0.40064
1677.00000    0.36948
1677.50000    0.33721
1678.00000    0.30411
1678.50000    0.27041
1679.00000    0.23635
1679.50000    0.20212
1680.00000    0.16794
1680.50000    0.13397
1681.00000    0.10043
1681.50000    0.06749
1682.00000    0.03536
1682.50000    0.00426
1683.00000   -0.02559
1683.50000   -0.05395
1684.00000   -0.08058
1684.50000   -0.10524
1685.00000   -0.12766
1685.50000   -0.14762
1686.00000   -0.16490
1686.50000   -0.17931
1687.00000   -0.19070
1687.50000   -0.19897
1688.00000   -0.20404
1688.50000   -0.20594
1689.00000   -0.20471
1689.50000   -0.20047
1690.00000   -0.19341
1690.50000   -0.18377
1691.00000   -0.17183
1691.50000   -0.15794
1692.00000   -0.14247
1692.50000   -0.12583
1693.00000   -0.10846
1693.50000   -0.09079
1694.00000   -0.07327
1694.50000   -0.05635
1695.00000   -0.04046
1695.50000   -0.02600
1696.00000   -0.01335
1696.50000   -0.00286
1697.00000    0.00518
1697.50000    0.01051
1698.00000    0.01294
1698.50000    0.01231
1699.00000    0.00855
1699.50000    0.00162
1700.00000   -0.00844
1700.50000   -0.02154
1701.00000   -0.03751
1701.50000   -0.05613
1702.00000   -0.07713
1702.50000   -0.10017
1703.00000   -0.12486
1703.50000   -0.15077
1704.00000   -0.17744
1704.50000   -0.20435
1705.00000   -0.23099
1705.50000   -0.25682
1706.00000   -0.28129
1706.50000   -0.30387
1707.00000   -0.32406
1707.50000   -0.34136
1708.00000   -0.35535
1708.50000   -0.36563
1709.00000   -0.37189
1709.50000   -0.37387
1710.00000   -0.37141
1710.50000   -0.36441
1711.00000   -0.35289
1711.50000   -0.33693
1712.00000   -0.31671
1712.50000   -0.29251
1713.00000   -0.26465
1713.50000   -0.23355
1714.00000   -0.19968
1714.50000   -0.16357
1715.00000   -0.12577
1715.50000   -0.08686
1716.00000   -0.04742
1716.50000   -0.00803
1717.00000    0.03073
1717.50000    0.06834
1718.00000    0.10431
1718.50000    0.13820
1719.00000    0.16963
1719.50000    0.19828
1720.00000    0.22391
1720.50000    0.24634
1721.00000    0.26548
1721.50000    0.28130
1722.00000    0.29383
1722.50000    0.30317
1723.00000    0.30947
1723.50000    0.31294
1724.00000    0.31382
1724.50000    0.31238
1725.00000    0.30894
1725.50000    0.30379
1726.00000    0.29728
1726.50000    0.28971
1727.00000    0.28140
1727.50000    0.27266
1728.00000    0.26376
1728.50000    0.25497
1729.00000    0.24651
1729.50000    0.23859
1730.00000    0.23137
1730.50000    0.22498
1731.00000    0.21951
1731.50000    0.21501
1732.00000    0.21152
1732.50000    0.20901
1733.00000    0.20743
1733.50000    0.20670
1734.00000    0.20670
1734.50000    0.20729
1735.00000    0.20830
1735.50000    0.20956
1736.00000    0.21085
1736.50000    0.21196
1737.00000    0.21266
1737.50000    0.21274
1738.00000    0.21196
1738.50000    0.21011
1739.00000    0.20699
1739.50000    0.20240
1740.00000    0.19619
1740.50000    0.18821
1741.00000    0.17837
1741.50000    0.16660
1742.00000    0.15287
1742.50000    0.13721
1743.00000    0.11970
1743.50000    0.10044
1744.00000    0.07963
1744.50000    0.05747
1745.00000    0.03426
1745.50000    0.01031
1746.00000   -0.01401
1746.50000   -0.03830
1747.00000   -0.06215
1747.50000   -0.08512
1748.00000   -0.10675
1748.50000   -0.12663
1749.00000   -0.14433
1749.50000   -0.15949
1750.00000   -0.17178
1750.50000   -0.18092
1751.00000   -0.18673
1751.50000   -0.18909
1752.00000   -0.18796
1752.50000   -0.18339
1753.00000   -0.17552
1753.50000   -0.16457
1754.00000   -0.15083
1754.50000   -0.13463
1755.00000   -0.11639
1755.50000   -0.09652
1756.00000   -0.07549
1756.50000   -0.05373
1757.00000   -0.03170
1757.50000   -0.00982
1758.00000    0.01153
1758.50000    0.03201
1759.00000    0.05133
1759.50000    0.06926
1760.00000    0.08560
1760.50000    0.10023
1761.00000    0.11306
1761.50000    0.12406
1762.00000    0.13319
1762.50000    0.14049
1763.00000    0.14597
1763.50000    0.14968
1764.00000    0.15163
1764.50000    0.15187
1765.00000    0.15041
1765.50000    0.14727
1766.00000    0.14244
1766.50000    0.13591
1767.00000    0.12769
1767.50000    0.11776
1768.00000    0.10614
1768.50000    0.09285
1769.00000    0.07793
1769.50000    0.06146
1770.00000    0.04353
1770.50000    0.02429
1771.00000    0.00387
1771.50000   -0.01751
1772.00000   -0.03967
1772.50000   -0.06237
1773.00000   -0.08538
1773.50000   -0.10847
1774.00000   -0.13140
1774.50000   -0.15395
1775.00000   -0.17593
1775.50000   -0.19714
1776.00000   -0.21744
1776.50000   -0.23670
1777.00000   -0.25479
1777.50000   -0.27164
1778.00000   -0.28717
1778.50000   -0.30131
1779.00000   -0.31400
1779.50000   -0.32517
1780.00000   -0.33475
1780.50000   -0.34265
1781.00000   -0.34875
1781.50000   -0.35294
1782.00000   -0.35507
1782.50000   -0.35500
1783.00000   -0.35257
1783.50000   -0.34764
1784.00000   -0.34008
1784.50000   -0.32980
1785.00000   -0.31674
1785.50000   -0.30089
1786.00000   -0.28231
1786.50000   -0.26113
1787.00000   -0.23755
1787.50000   -0.21184
1788.00000   -0.18435
1788.50000   -0.15549
1789.00000   -0.12572
1789.50000   -0.09555
1790.00000   -0.06553
1790.50000   -0.03617
1791.00000   -0.00802
1791.50000    0.01843
1792.00000    0.04273
1792.50000    0.06451
1793.00000    0.08348
1793.50000    0.09944
1794.00000    0.11229
1794.50000    0.12202
1795.00000    0.12876
1795.50000    0.13268
1796.00000    0.13408
1796.50000    0.13330
1797.00000    0.13074
1797.50000    0.12681
1798.00000    0.12194
1798.50000    0.11657
1799.00000    0.11106
1799.50000    0.10578
1800.00000    0.10100
1800.50000    0.09696
1801.00000    0.09380
1801.50000    0.09162
1802.00000    0.09044
1802.50000    0.09021
1803.00000    0.09087
1803.50000    0.09229
1804.00000    0.09433
1804.50000    0.09684
1805.00000    0.09968
1805.50000    0.10272
1806.00000    0.10588
1806.50000    0.10907
1807.00000    0.11228
1807.50000    0.11552
1808.00000    0.11882
1808.50000    0.12228
1809.00000    0.12597
1809.50000    0.13001
1810.00000    0.13450
1810.50000    0.13952
1811.00000    0.14512
1811.50000    0.15133
1812.00000    0.15812
1812.50000    0.16539
1813.00000    0.17301
1813.50000    0.18078
1814.00000    0.18844
1814.50000    0.19571
1815.00000    0.20225
1815.50000    0.20772
1816.00000    0.21176
1816.50000    0.21403
1817.00000    0.21422
1817.50000    0.21205
1818.00000    0.20730
1818.50000    0.19982
1819.00000    0.18953
1819.50000    0.17645
1820.00000    0.16065
1820.50000    0.14230
1821.00000    0.12166
1821.50000    0.09903
1822.00000    0.07477
1822.50000    0.04928
1823.00000    0.02299
1823.50000   -0.00367
1824.00000   -0.03029
1824.50000   -0.05647
1825.00000   -0.08186
1825.50000   -0.10615
1826.00000   -0.12911
1826.50000   -0.15055
1827.00000   -0.17036
1827.50000   -0.18848
1828.00000   -0.20489
1828.50000   -0.21963
1829.00000   -0.23277
1829.50000   -0.24437
1830.00000   -0.25454
1830.50000   -0.26333
1831.00000   -0.27082
1831.50000   -0.27702
1832.00000   -0.28193
1832.50000   -0.28550
1833.00000   -0.28765
1833.50000   -0.28827
1834.00000   -0.28720
1834.50000   -0.28427
1835.00000   -0.27931
1835.50000   -0.27214
1836.00000   -0.26260
1836.50000   -0.25056
1837.00000   -0.23592
1837.50000   -0.21863
1838.00000   -0.19870
1838.50000   -0.17620
1839.00000   -0.15127
1839.50000   -0.12410
1840.00000   -0.09495
1840.50000   -0.06415
1841.00000   -0.03204
1841.50000    0.00096
1842.00000    0.03443
1842.50000    0.06792
1843.00000    0.10099
1843.50000    0.13319
1844.00000    0.16409
1844.50000    0.19329
1845.00000    0.22040
1845.50000    0.24508
1846.00000    0.26704
1846.50000    0.28602
1847.00000    0.30179
1847.50000    0.31420
1848.00000    0.32313
1848.50000    0.32848
1849.00000    0.33025
1849.50000    0.32844
1850.00000    0.32312
1850.50000    0.31439
1851.00000    0.30241
1851.50000    0.28736
1852.00000    0.26947
1852.50000    0.24901
1853.00000    0.22629
1853.50000    0.20163
1854.00000    0.17540
1854.50000    0.14796
1855.00000    0.11971
1855.50000    0.09104
1856.00000    0.06235
1856.50000    0.03401
1857.00000    0.00640
1857.50000   -0.02014
1858.00000   -0.04528
1858.50000   -0.06875
1859.00000   -0.09029
1859.50000   -0.10968
1860.00000   -0.12677
1860.50000   -0.14140
1861.00000   -0.15350
1861.50000   -0.16300
1862.00000   -0.16989
1862.50000   -0.17416
1863.00000   -0.17585
1863.50000   -0.17504
1864.00000   -0.17180
1864.50000   -0.16625
1865.00000   -0.15852
1865.50000   -0.14876
1866.00000   -0.13714
1866.50000   -0.12386
1867.00000   -0.10911
1867.50000   -0.09314
1868.00000   -0.07619
1868.50000   -0.05854
1869.00000   -0.04048
1869.50000   -0.02231
1870.00000   -0.00436
1870.50000    0.01303
1871.00000    0.02953
1871.50000    0.04478
1872.00000    0.05845
1872.50000    0.07021
1873.00000    0.07975
1873.50000    0.08679
1874.00000    0.09108
1874.50000    0.09242
1875.00000    0.09067
1875.50000    0.08573
1876.00000    0.07758
1876.50000    0.06625
1877.00000    0.05186
1877.50000    0.03459
1878.00000    0.01467
1878.50000   -0.00758
1879.00000   -0.03181
1879.50000   -0.05761
1880.00000   -0.08452
1880.50000   -0.11207
1881.00000   -0.13976
1881.50000   -0.16709
1882.00000   -0.19357
1882.50000   -0.21873
1883.00000   -0.24211
1883.50000   -0.26332
1884.00000   -0.28197
1884.50000   -0.29778
1885.00000   -0.31047
1885.50000   -0.31986
1886.00000   -0.32581
1886.50000   -0.32824
1887.00000   -0.32714
1887.50000   -0.32254
1888.00000   -0.31451
1888.50000   -0.30318
1889.00000   -0.28871
1889.50000   -0.27129
1890.00000   -0.25115
1890.50000   -0.22852
1891.00000   -0.20368
1891.50000   -0.17689
1892.00000   -0.14846
1892.50000   -0.11868
1893.00000   -0.08789
1893.50000   -0.05640
1894.00000   -0.02455
1894.50000    0.00734
1895.00000    0.03891
1895.50000    0.06985
1896.00000    0.09983
1896.50000    0.12853
1897.00000    0.15568
1897.50000    0.18099
1898.00000    0.20423
1898.50000    0.22520
1899.00000    0.24373
1899.50000    0.25971
1900.00000    0.27304
1900.50000    0.28370
1901.00000    0.29169
1901.50000    0.29706
1902.00000    0.29988
1902.50000    0.30028
1903.00000    0.29840
1903.50000    0.29440
1904.00000    0.28845
1904.50000    0.28074
1905.00000    0.27146
1905.50000    0.26080
1906.00000    0.24895
1906.50000    0.23609
1907.00000    0.22239
1907.50000    0.20801
1908.00000    0.19310
1908.50000    0.17782
1909.00000    0.16229
1909.50000    0.14665
1910.00000    0.13100
1910.50000    0.11544
1911.00000    0.10008
1911.50000    0.08498
1912.00000    0.07021
1912.50000    0.05580
1913.00000    0.04177
1913.50000    0.02813
1914.00000    0.01485
1914.50000    0.00189
1915.00000   -0.01080
1915.50000   -0.02327
1916.00000   -0.03560
1916.50000   -0.04783
1917.00000   -0.06001
1917.50000   -0.07215
1918.00000   -0.08424
1918.50000   -0.09623
1919.00000   -0.10802
1919.50000   -0.11945
1920.00000   -0.13035
1920.50000   -0.14047
1921.00000   -0.14955
1921.50000   -0.15729
1922.00000   -0.16338
1922.50000   -0.16751
1923.00000   -0.16942
1923.50000   -0.16884
1924.00000   -0.16558
1924.50000   -0.15954
1925.00000   -0.15067
1925.50000   -0.13903
1926.00000   -0.12476
1926.50000   -0.10813
1927.00000   -0.08946
1927.50000   -0.06918
1928.00000   -0.04777
1928.50000   -0.02575
1929.00000   -0.00368
1929.50000    0.01791
1930.00000    0.03847
1930.50000    0.05754
1931.00000    0.07469
1931.50000    0.08958
1932.00000    0.10197
1932.50000    0.11170
1933.00000    0.11871
1933.50000    0.12302
1934.00000    0.12473
1934.50000    0.12402
1935.00000    0.12111
1935.50000    0.11625
1936.00000    0.10974
1936.50000    0.10184
1937.00000    0.09284
1937.50000    0.08299
1938.00000    0.07253
1938.50000    0.06165
1939.00000    0.05054
1939.50000    0.03934
1940.00000    0.02818
1940.50000    0.01720
1941.00000    0.00649
1941.50000   -0.00381
1942.00000   -0.01357
1942.50000   -0.02265
1943.00000   -0.03087
1943.50000   -0.03806
1944.00000   -0.04402
1944.50000   -0.04856
1945.00000   -0.05149
1945.50000   -0.05263
1946.00000   -0.05186
1946.50000   -0.04907
1947.00000   -0.04424
1947.50000   -0.03741
1948.00000   -0.02867
1948.50000   -0.01823
1949.00000   -0.00635
1949.50000    0.00666
1950.00000    0.02039
1950.50000    0.03442
1951.00000    0.04830
1951.50000    0.06157
1952.00000    0.07378
1952.50000    0.08454
1953.00000    0.09348
1953.50000    0.10032
1954.00000    0.10486
1954.50000    0.10699
1955.00000    0.10668
1955.50000    0.10401
1956.00000    0.09915
1956.50000    0.09232
1957.00000    0.08385
1957.50000    0.07407
1958.00000    0.06340
1958.50000    0.05223
1959.00000    0.04098
1959.50000    0.03005
1960.00000    0.01979
1960.50000    0.01052
1961.00000    0.00250
1961.50000   -0.00407
1962.00000   -0.00907
1962.50000   -0.01244
1963.00000   -0.01419
1963.50000   -0.01439
1964.00000   -0.01320
1964.50000   -0.01080
1965.00000   -0.00742
1965.50000   -0.00336
1966.00000    0.00110
1966.50000    0.00565
1967.00000    0.00995
1967.50000    0.01372
1968.00000    0.01665
1968.50000    0.01849
1969.00000    0.01901
1969.50000    0.01803
1970.00000    0.01543
1970.50000    0.01114
1971.00000    0.00514
1971.50000   -0.00250
1972.00000   -0.01169
1972.50000   -0.02225
1973.00000   -0.03395
1973.50000   -0.04653
1974.00000   -0.05967
1974.50000   -0.07305
1975.00000   -0.08631
1975.50000   -0.09909
1976.00000   -0.11103
1976.50000   -0.12181
1977.00000   -0.13111
1977.50000   -0.13867
1978.00000   -0.14426
1978.50000   -0.14769
1979.00000   -0.14885
1979.50000   -0.14765
1980.00000   -0.14407
1980.50000   -0.13813
1981.00000   -0.12989
1981.50000   -0.11941
1982.00000   -0.10682
1982.50000   -0.09222
1983.00000   -0.07573
1983.50000   -0.05746
1984.00000   -0.03750
1984.50000   -0.01591
1985.00000    0.00727
1985.50000    0.03201
1986.00000    0.05834
1986.50000    0.08630
1987.00000    0.11593
1987.50000    0.14731
1988.00000    0.18051
1988.50000    0.21557
1989.00000    0.25253
1989.50000    0.29141
1990.00000    0.33215
1990.50000    0.37467
1991.00000    0.41881
1991.50000    0.46437
1992.00000    0.51106
1992.50000    0.55855
1993.00000    0.60645
1993.50000    0.65431
1994.00000    0.70165
1994.50000    0.74797
1995.00000    0.79273
1995.50000    0.83545
1996.00000    0.87562
1996.50000    0.91280
1997.00000    0.94660
1997.50000    0.97669
1998.00000    1.00283
1998.50000    1.02487
1999.00000    1.04274
1999.50000    1.05647
2000.00000    1.06617
2000.50000    1.07205
2001.00000    1.07436
2001.50000    1.07342
2002.00000    1.06957
2002.50000    1.06320
2003.00000    1.05464
2003.50000    1.04425
2004.00000    1.03232
2004.50000    1.01908
2005.00000    1.00470
2005.50000    0.98925
2006.00000    0.97275
2006.50000    0.95511
2007.00000    0.93616
2007.50000    0.91567
2008.00000    0.89335
2008.50000    0.86888
2009.00000    0.84189
2009.50000    0.81204
2010.00000    0.77902
2010.50000    0.74253
2011.00000    0.70236
2011.50000    0.65839
2012.00000    0.61056
2012.50000    0.55894
2013.00000    0.50370
2013.50000    0.44513
2014.00000    0.38363
2014.50000    0.31968
2015.00000    0.25388
2015.50000    0.18689
2016.00000    0.11946
2016.50000    0.05235
2017.00000   -0.01361
2017.50000   -0.07761
2018.00000   -0.13882
2018.50000   -0.19645
2019.00000   -0.24975
2019.50000   -0.29801
2020.00000   -0.34062
2020.50000   -0.37703
2021.00000   -0.40680
2021.50000   -0.42960
2022.00000   -0.44521
2022.50000   -0.45353
2023.00000   -0.45461
2023.50000   -0.44860
2024.00000   -0.43580
2024.50000   -0.41663
2025.00000   -0.39162
2025.50000   -0.36142
2026.00000   -0.32678
2026.50000   -0.28854
2027.00000   -0.24758
2027.50000   -0.20484
2028.00000   -0.16128
2028.50000   -0.11783
2029.00000   -0.07541
2029.50000   -0.03486
2030.00000    0.00305
2030.50000    0.03768
2031.00000    0.06850
2031.50000    0.09514
2032.00000    0.11739
2032.50000    0.13522
2033.00000    0.14874
2033.50000    0.15824
2034.00000    0.16414
2034.50000    0.16701
2035.00000    0.16751
2035.50000    0.16638
2036.00000    0.16439
2036.50000    0.16234
2037.00000    0.16101
2037.50000    0.16112
2038.00000    0.16331
2038.50000    0.16811
2039.00000    0.17593
2039.50000    0.18704
2040.00000    0.20156
2040.50000    0.21946
2041.00000    0.24058
2041.50000    0.26462
2042.00000    0.29114
2042.50000    0.31963
2043.00000    0.34950
2043.50000    0.38009
2044.00000    0.41073
2044.50000    0.44075
2045.00000    0.46948
2045.50000    0.49632
2046.00000    0.52070
2046.50000    0.54213
2047.00000    0.56020
2047.50000    0.57459
2048.00000    0.58505
2048.50000    0.59141
2049.00000    0.59361
2049.50000    0.59161
2050.00000    0.58549
2050.50000    0.57534
2051.00000    0.56133
2051.50000    0.54364
2052.00000    0.52251
2052.50000    0.49819
2053.00000    0.47098
2053.50000    0.44118
2054.00000    0.40913
2054.50000    0.37518
2055.00000    0.33971
2055.50000    0.30311
2056.00000    0.26582
2056.50000    0.22827
2057.00000    0.19092
2057.50000    0.15424
2058.00000    0.11872
2058.50000    0.08484
2059.00000    0.05308
2059.50000    0.02390
2060.00000   -0.00224
2060.50000   -0.02496
2061.00000   -0.04387
2061.50000   -0.05867
2062.00000   -0.06910
2062.50000   -0.07497
2063.00000   -0.07616
2063.50000   -0.07262
2064.00000   -0.06438
2064.50000   -0.05154
2065.00000   -0.03428
2065.50000   -0.01283
2066.00000    0.01250
2066.50000    0.04138
2067.00000    0.07339
2067.50000    0.10811
2068.00000    0.14509
2068.50000    0.18387
2069.00000    0.22398
2069.50000    0.26496
2070.00000    0.30636
2070.50000    0.34775
2071.00000    0.38873
2071.50000    0.42892
2072.00000    0.46797
2072.50000    0.50555
2073.00000    0.54136
2073.50000    0.57511
2074.00000    0.60651
2074.50000    0.63529
2075.00000    0.66117
2075.50000    0.68386
2076.00000    0.70306
2076.50000    0.71845
2077.00000    0.72970
2077.50000    0.73648
2078.00000    0.73847
2078.50000    0.73533
2079.00000    0.72679
2079.50000    0.71260
2080.00000    0.69257
2080.50000    0.66662
2081.00000    0.63474
2081.50000    0.59704
2082.00000    0.55378
2082.50000    0.50534
2083.00000    0.45222
2083.50000    0.39507
2084.00000    0.33467
2084.50000    0.27188
2085.00000    0.20766
2085.50000    0.14302
2086.00000    0.07898
2086.50000    0.01657
2087.00000   -0.04324
2087.50000   -0.09955
2088.00000   -0.15153
2088.50000   -0.19852
2089.00000   -0.23996
2089.50000   -0.27546
2090.00000   -0.30477
2090.50000   -0.32779
2091.00000   -0.34457
2091.50000   -0.35526
2092.00000   -0.36013
2092.50000   -0.35955
2093.00000   -0.35392
2093.50000   -0.34370
2094.00000   -0.32935
2094.50000   -0.31136
2095.00000   -0.29018
2095.50000   -0.26624
2096.00000   -0.23995
2096.50000   -0.21167
2097.00000   -0.18177
2097.50000   -0.15055
2098.00000   -0.11834
2098.50000   -0.08542
2099.00000   -0.05211
2099.50000   -0.01873
2100.00000    0.01440
2100.50000    0.04692
2101.00000    0.07845
2101.50000    0.10862
2102.00000    0.13702
2102.50000    0.16325
2103.00000    0.18693
2103.50000    0.20769
2104.00000    0.22520
2104.50000    0.23917
2105.00000    0.24940
2105.50000    0.25572
2106.00000    0.25806
2106.50000    0.25643
2107.00000    0.25092
2107.50000    0.24168
2108.00000    0.22895
2108.50000    0.21303
2109.00000    0.19426
2109.50000    0.17305
2110.00000    0.14980
2110.50000    0.12495
2111.00000    0.09894
2111.50000    0.07219
2112.00000    0.04510
2112.50000    0.01808
2113.00000   -0.00855
2113.50000   -0.03444
2114.00000   -0.05934
2114.50000   -0.08299
2115.00000   -0.10517
2115.50000   -0.12572
2116.00000   -0.14448
2116.50000   -0.16132
2117.00000   -0.17614
2117.50000   -0.18885
2118.00000   -0.19939
2118.50000   -0.20772
2119.00000   -0.21379
2119.50000   -0.21759
2120.00000   -0.21913
2120.50000   -0.21844
2121.00000   -0.21555
2121.50000   -0.21054
2122.00000   -0.20351
2122.50000   -0.19458
2123.00000   -0.18391
2123.50000   -0.17169
2124.00000   -0.15810
2124.50000   -0.14339
2125.00000   -0.12780
2125.50000   -0.11157
2126.00000   -0.09497
2126.50000   -0.07826
2127.00000   -0.06169
2127.50000   -0.04549
2128.00000   -0.02987
2128.50000   -0.01501
2129.00000   -0.00106
2129.50000    0.01188
2130.00000    0.02372
2130.50000    0.03444
2131.00000    0.04404
2131.50000    0.05254
2132.00000    0.06000
2132.50000    0.06649
2133.00000    0.07211
2133.50000    0.07694
2134.00000    0.08106
2134.50000    0.08456
2135.00000    0.08748
2135.50000    0.08987
2136.00000    0.09175
2136.50000    0.09311
2137.00000    0.09393
2137.50000    0.09417
2138.00000    0.09379
2138.50000    0.09275
2139.00000    0.09102
2139.50000    0.08860
2140.00000    0.08548
2140.50000    0.08174
2141.00000    0.07746
2141.50000    0.07279
2142.00000    0.06791
2142.50000    0.06306
2143.00000    0.05850
2143.50000    0.05453
2144.00000    0.05146
2144.50000    0.04962
2145.00000    0.04931
2145.50000    0.05081
2146.00000    0.05435
2146.50000    0.06009
2147.00000    0.06815
2147.50000    0.07852
2148.00000    0.09113
2148.50000    0.10580
2149.00000    0.12225
2149.50000    0.14013
2150.00000    0.15898
2150.50000    0.17830
2151.00000    0.19752
2151.50000    0.21604
2152.00000    0.23326
2152.50000    0.24857
2153.00000    0.26140
2153.50000    0.27125
2154.00000    0.27765
2154.50000    0.28024
2155.00000    0.27876
2155.50000    0.27305
2156.00000    0.26305
2156.50000    0.24883
2157.00000    0.23057
2157.50000    0.20853
2158.00000    0.18309
2158.50000    0.15470
2159.00000    0.12388
2159.50000    0.09121
2160.00000    0.05730
2160.50000    0.02280
2161.00000   -0.01165
2161.50000   -0.04543
2162.00000   -0.07791
2162.50000   -0.10853
2163.00000   -0.13677
2163.50000   -0.16217
2164.00000   -0.18435
2164.50000   -0.20301
2165.00000   -0.21792
2165.50000   -0.22897
2166.00000   -0.23612
2166.50000   -0.23944
2167.00000   -0.23908
2167.50000   -0.23529
2168.00000   -0.22839
2168.50000   -0.21876
2169.00000   -0.20687
2169.50000   -0.19319
2170.00000   -0.17824
2170.50000   -0.16254
2171.00000   -0.14662
2171.50000   -0.13095
2172.00000   -0.11597
2172.50000   -0.10207
2173.00000   -0.08956
2173.50000   -0.07865
2174.00000   -0.06949
2174.50000   -0.06212
2175.00000   -0.05650
2175.50000   -0.05250
2176.00000   -0.04993
2176.50000   -0.04852
2177.00000   -0.04800
2177.50000   -0.04802
2178.00000   -0.04827
2178.50000   -0.04843
2179.00000   -0.04820
2179.50000   -0.04734
2180.00000   -0.04565
2180.50000   -0.04302
2181.00000   -0.03937
2181.50000   -0.03470
2182.00000   -0.02910
2182.50000   -0.02268
2183.00000   -0.01564
2183.50000   -0.00820
2184.00000   -0.00061
2184.50000    0.00685
2185.00000    0.01390
2185.50000    0.02024
2186.00000    0.02563
2186.50000    0.02980
2187.00000    0.03255
2187.50000    0.03370
2188.00000    0.03311
2188.50000    0.03070
2189.00000    0.02643
2189.50000    0.02031
2190.00000    0.01242
2190.50000    0.00288
2191.00000   -0.00811
2191.50000   -0.02032
2192.00000   -0.03346
2192.50000   -0.04719
2193.00000   -0.06113
2193.50000   -0.07486
2194.00000   -0.08795
2194.50000   -0.09993
2195.00000   -0.11036
2195.50000   -0.11878
2196.00000   -0.12479
2196.50000   -0.12801
2197.00000   -0.12812
2197.50000   -0.12486
2198.00000   -0.11805
2198.50000   -0.10761
2199.00000   -0.09353
2199.50000   -0.07590
2200.00000   -0.05488
2200.50000   -0.03074
2201.00000   -0.00381
2201.50000    0.02553
2202.00000    0.05682
2202.50000    0.08959
2203.00000    0.12333
2203.50000    0.15752
2204.00000    0.19166
2204.50000    0.22526
2205.00000    0.25784
2205.50000    0.28897
2206.00000    0.31825
2206.50000    0.34533
2207.00000    0.36989
2207.50000    0.39168
2208.00000    0.41046
2208.50000    0.42609
2209.00000    0.43843
2209.50000    0.44740
2210.00000    0.45298
2210.50000    0.45519
2211.00000    0.45407
2211.50000    0.44974
2212.00000    0.44234
2212.50000    0.43205
2213.00000    0.41910
2213.50000    0.40374
2214.00000    0.38623
2214.50000    0.36687
2215.00000    0.34593
2215.50000    0.32371
2216.00000    0.30047
2216.50000    0.27643
2217.00000    0.25180
2217.50000    0.22672
2218.00000    0.20130
2218.50000    0.17558
2219.00000    0.14956
2219.50000    0.12321
2220.00000    0.09645
2220.50000    0.06919
2221.00000    0.04134
2221.50000    0.01282
2222.00000   -0.01642
2222.50000   -0.04637
2223.00000   -0.07696
2223.50000   -0.10806
2224.00000   -0.13943
2224.50000   -0.17076
2225.00000   -0.20167
2225.50000   -0.23167
2226.00000   -0.26024
2226.50000   -0.28682
2227.00000   -0.31080
2227.50000   -0.33161
2228.00000   -0.34868
2228.50000   -0.36151
2229.00000   -0.36969
2229.50000   -0.37290
2230.00000   -0.37093
2230.50000   -0.36371
2231.00000   -0.35130
2231.50000   -0.33391
2232.00000   -0.31186
2232.50000   -0.28559
2233.00000   -0.25567
2233.50000   -0.22270
2234.00000   -0.18739
2234.50000   -0.15046
2235.00000   -0.11262
2235.50000   -0.07458
2236.00000   -0.03702
2236.50000   -0.00053
2237.00000    0.03436
2237.50000    0.06719
2238.00000    0.09762
2238.50000    0.12538
2239.00000    0.15031
2239.50000    0.17231
2240.00000    0.19135
2240.50000    0.20749
2241.00000    0.22078
2241.50000    0.23134
2242.00000    0.23928
2242.50000    0.24470
2243.00000    0.24773
2243.50000    0.24843
2244.00000    0.24688
2244.50000    0.24312
2245.00000    0.23717
2245.50000    0.22905
2246.00000    0.21878
2246.50000    0.20637
2247.00000    0.19188
2247.50000    0.17537
2248.00000    0.15698
2248.50000    0.13688
2249.00000    0.11530
2249.50000    0.09255
2250.00000    0.06899
2250.50000    0.04505
2251.00000    0.02119
2251.50000   -0.00206
2252.00000   -0.02416
2252.50000   -0.04458
2253.00000   -0.06276
2253.50000   -0.07820
2254.00000   -0.09042
2254.50000   -0.09903
2255.00000   -0.10367
2255.50000   -0.10412
2256.00000   -0.10019
2256.50000   -0.09184
2257.00000   -0.07908
2257.50000   -0.06202
2258.00000   -0.04084
2258.50000   -0.01581
2259.00000    0.01279
2259.50000    0.04460
2260.00000    0.07928
2260.50000    0.11644
2261.00000    0.15571
2261.50000    0.19675
2262.00000    0.23920
2262.50000    0.28275
2263.00000    0.32710
2263.50000    0.37195
2264.00000    0.41704
2264.50000    0.46209
2265.00000    0.50680
2265.50000    0.55088
2266.00000    0.59400
2266.50000    0.63578
2267.00000    0.67581
2267.50000    0.71364
2268.00000    0.74878
2268.50000    0.78070
2269.00000    0.80884
2269.50000    0.83266
2270.00000    0.85159
2270.50000    0.86510
2271.00000    0.87272
2271.50000    0.87405
2272.00000    0.86876
2272.50000    0.85666
2273.00000    0.83768
2273.50000    0.81186
2274.00000    0.77943
2274.50000    0.74074
2275.00000    0.69628
2275.50000    0.64669
2276.00000    0.59271
2276.50000    0.53519
2277.00000    0.47504
2277.50000    0.41321
2278.00000    0.35070
2278.50000    0.28845
2279.00000    0.22741
2279.50000    0.16843
2280.00000    0.11229
2280.50000    0.05964
2281.00000    0.01104
2281.50000   -0.03309
2282.00000   -0.07245
2282.50000   -0.10691
2283.00000   -0.13641
2283.50000   -0.16104
2284.00000   -0.18098
2284.50000   -0.19651
2285.00000   -0.20795
2285.50000   -0.21569
2286.00000   -0.22016
2286.50000   -0.22178
2287.00000   -0.22099
2287.50000   -0.21821
2288.00000   -0.21383
2288.50000   -0.20820
2289.00000   -0.20165
2289.50000   -0.19443
2290.00000   -0.18677
2290.50000   -0.17883
2291.00000   -0.17073
2291.50000   -0.16253
2292.00000   -0.15427
2292.50000   -0.14595
2293.00000   -0.13752
2293.50000   -0.12892
2294.00000   -0.12007
2294.50000   -0.11088
2295.00000   -0.10126
2295.50000   -0.09112
2296.00000   -0.08037
2296.50000   -0.06895
2297.00000   -0.05682
2297.50000   -0.04398
2298.00000   -0.03043
2298.50000   -0.01624
2299.00000   -0.00147
2299.50000    0.01373
2300.00000    0.02924
2300.50000    0.04486
2301.00000    0.06040
2301.50000    0.07565
2302.00000    0.09037
2302.50000    0.10437
2303.00000    0.11741
2303.50000    0.12930
2304.00000    0.13986
2304.50000    0.14895
2305.00000    0.15645
2305.50000    0.16226
2306.00000    0.16634
2306.50000    0.16865
2307.00000    0.16920
2307.50000    0.16800
2308.00000    0.16510
2308.50000    0.16054
2309.00000    0.15438
2309.50000    0.14667
2310.00000    0.13748
2310.50000    0.12686
2311.00000    0.11487
2311.50000    0.10158
2312.00000    0.08706
2312.50000    0.07138
2313.00000    0.05466
2313.50000    0.03702
2314.00000    0.01862
2314.50000   -0.00034
2315.00000   -0.01965
2315.50000   -0.03904
2316.00000   -0.05823
2316.50000   -0.07690
2317.00000   -0.09473
2317.50000   -0.11139
2318.00000   -0.12656
2318.50000   -0.13994
2319.00000   -0.15128
2319.50000   -0.16035
2320.00000   -0.16699
2320.50000   -0.17111
2321.00000   -0.17265
2321.50000   -0.17165
2322.00000   -0.16820
2322.50000   -0.16243
2323.00000   -0.15452
2323.50000   -0.14469
2324.00000   -0.13318
2324.50000   -0.12022
2325.00000   -0.10606
2325.50000   -0.09091
2326.00000   -0.07499
2326.50000   -0.05845
2327.00000   -0.04145
2327.50000   -0.02409
2328.00000   -0.00645
2328.50000    0.01140
2329.00000    0.02943
2329.50000    0.04762
2330.00000    0.06595
2330.50000    0.08440
2331.00000    0.10297
2331.50000    0.12163
2332.00000    0.14038
2332.50000    0.15920
2333.00000    0.17807
2333.50000    0.19699
2334.00000    0.21594
2334.50000    0.23492
2335.00000    0.25395
2335.50000    0.27301
2336.00000    0.29212
2336.50000    0.31125
2337.00000    0.33038
2337.50000    0.34942
2338.00000    0.36826
2338.50000    0.38674
2339.00000    0.40460
2339.50000    0.42155
2340.00000    0.43719
2340.50000    0.45108
2341.00000    0.46270
2341.50000    0.47151
2342.00000    0.47690
2342.50000    0.47831
2343.00000    0.47518
2343.50000    0.46699
2344.00000    0.45334
2344.50000    0.43393
2345.00000    0.40860
2345.50000    0.37736
2346.00000    0.34038
2346.50000    0.29804
2347.00000    0.25088
2347.50000    0.19960
2348.00000    0.14507
2348.50000    0.08829
2349.00000    0.03032
2349.50000   -0.02768
2350.00000   -0.08457
2350.50000   -0.13921
2351.00000   -0.19052
2351.50000   -0.23753
2352.00000   -0.27939
2352.50000   -0.31540
2353.00000   -0.34504
2353.50000   -0.36797
2354.00000   -0.38403
2354.50000   -0.39326
2355.00000   -0.39587
2355.50000   -0.39222
2356.00000   -0.38281
2356.50000   -0.36827
2357.00000   -0.34929
2357.50000   -0.32664
2358.00000   -0.30108
2358.50000   -0.27342
2359.00000   -0.24439
2359.50000   -0.21470
2360.00000   -0.18498
2360.50000   -0.15578
2361.00000   -0.12755
2361.50000   -0.10064
2362.00000   -0.07529
2362.50000   -0.05164
2363.00000   -0.02975
2363.50000   -0.00959
2364.00000    0.00893
2364.50000    0.02593
2365.00000    0.04160
2365.50000    0.05610
2366.00000    0.06961
2366.50000    0.08228
2367.00000    0.09424
2367.50000    0.10557
2368.00000    0.11632
2368.50000    0.12647
2369.00000    0.13600
2369.50000    0.14483
2370.00000    0.15289
2370.50000    0.16010
2371.00000    0.16637
2371.50000    0.17166
2372.00000    0.17595
2372.50000    0.17929
2373.00000    0.18175
2373.50000    0.18348
2374.00000    0.18467
2374.50000    0.18554
2375.00000    0.18635
2375.50000    0.18736
2376.00000    0.18884
2376.50000    0.19099
2377.00000    0.19400
2377.50000    0.19798
2378.00000    0.20297
2378.50000    0.20890
2379.00000    0.21564
2379.50000    0.22297
2380.00000    0.23058
2380.50000    0.23811
2381.00000    0.24518
2381.50000    0.25137
2382.00000    0.25630
2382.50000    0.25958
2383.00000    0.26093
2383.50000    0.26011
2384.00000    0.25698
2384.50000    0.25149
2385.00000    0.24369
2385.50000    0.23372
2386.00000    0.22180
2386.50000    0.20818
2387.00000    0.19319
2387.50000    0.17713
2388.00000    0.16032
2388.50000    0.14303
2389.00000    0.12548
2389.50000    0.10783
2390.00000    0.09016
2390.50000    0.07248
2391.00000    0.05471
2391.50000    0.03674
2392.00000    0.01839
2392.50000   -0.00053
2393.00000   -0.02022
2393.50000   -0.04084
2394.00000   -0.06253
2394.50000   -0.08537
2395.00000   -0.10933
2395.50000   -0.13432
2396.00000   -0.16015
2396.50000   -0.18652
2397.00000   -0.21307
2397.50000   -0.23933
2398.00000   -0.26482
2398.50000   -0.28898
2399.00000   -0.31125
2399.50000   -0.33108
2400.00000   -0.34794
2400.50000   -0.36136
2401.00000   -0.37094
2401.50000   -0.37635
2402.00000   -0.37735
2402.50000   -0.37381
2403.00000   -0.36571
2403.50000   -0.35312
2404.00000   -0.33621
2404.50000   -0.31523
2405.00000   -0.29054
2405.50000   -0.26254
2406.00000   -0.23170
2406.50000   -0.19855
2407.00000   -0.16364
2407.50000   -0.12755
2408.00000   -0.09087
2408.50000   -0.05419
2409.00000   -0.01809
2409.50000    0.01687
2410.00000    0.05015
2410.50000    0.08127
2411.00000    0.10979
2411.50000    0.13531
2412.00000    0.15750
2412.50000    0.17610
2413.00000    0.19092
2413.50000    0.20185
2414.00000    0.20884
2414.50000    0.21192
2415.00000    0.21121
2415.50000    0.20687
2416.00000    0.19913
2416.50000    0.18830
2417.00000    0.17470
2417.50000    0.15870
2418.00000    0.14068
2418.50000    0.12106
2419.00000    0.10022
2419.50000    0.07855
2420.00000    0.05641
2420.50000    0.03414
2421.00000    0.01201
2421.50000   -0.00971
2422.00000   -0.03084
2422.50000   -0.05122
2423.00000   -0.07072
2423.50000   -0.08929
2424.00000   -0.10687
2424.50000   -0.12344
2425.00000   -0.13898
2425.50000   -0.15348
2426.00000   -0.16692
2426.50000   -0.17923
2427.00000   -0.19034
2427.50000   -0.20012
2428.00000   -0.20840
2428.50000   -0.21496
2429.00000   -0.21955
2429.50000   -0.22187
2430.00000   -0.22158
2430.50000   -0.21833
2431.00000   -0.21178
2431.50000   -0.20159
2432.00000   -0.18745
2432.50000   -0.16911
2433.00000   -0.14640
2433.50000   -0.11922
2434.00000   -0.08761
2434.50000   -0.05169
2435.00000   -0.01172
2435.50000    0.03191
2436.00000    0.07868
2436.50000    0.12799
2437.00000    0.17911
2437.50000    0.23123
2438.00000    0.28350
2438.50000    0.33504
2439.00000    0.38495
2439.50000    0.43239
2440.00000    0.47654
2440.50000    0.51670
2441.00000    0.55226
2441.50000    0.58276
2442.00000    0.60788
2442.50000    0.62744
2443.00000    0.64144
2443.50000    0.65001
2444.00000    0.65345
2444.50000    0.65218
2445.00000    0.64671
2445.50000    0.63767
2446.00000    0.62571
2446.50000    0.61154
2447.00000    0.59583
2447.50000    0.57925
2448.00000    0.56239
2448.50000    0.54577
2449.00000    0.52981
2449.50000    0.51479
2450.00000    0.50090
2450.50000    0.48818
2451.00000    0.47657
2451.50000    0.46586
2452.00000    0.45578
2452.50000    0.44596
2453.00000    0.43599
2453.50000    0.42543
2454.00000    0.41383
2454.50000    0.40077
2455.00000    0.38587
2455.50000    0.36883
2456.00000    0.34944
2456.50000    0.32759
2457.00000    0.30328
2457.50000    0.27663
2458.00000    0.24784
2458.50000    0.21726
2459.00000    0.18529
2459.50000    0.15241
2460.00000    0.11916
2460.50000    0.08609
2461.00000    0.05377
2461.50000    0.02276
2462.00000   -0.00643
2462.50000   -0.03335
2463.00000   -0.05760
2463.50000   -0.07888
2464.00000   -0.09696
2464.50000   -0.11170
2465.00000   -0.12304
2465.50000   -0.13101
2466.00000   -0.13568
2466.50000   -0.13719
2467.00000   -0.13572
2467.50000   -0.13147
2468.00000   -0.12464
2468.50000   -0.11544
2469.00000   -0.10403
2469.50000   -0.09059
2470.00000   -0.07522
2470.50000   -0.05801
2471.00000   -0.03901
2471.50000   -0.01822
2472.00000    0.00438
2472.50000    0.02881
2473.00000    0.05511
2473.50000    0.08333
2474.00000    0.11347
2474.50000    0.14550
2475.00000    0.17935
2475.50000    0.21489
2476.00000    0.25191
2476.50000    0.29012
2477.00000    0.32917
2477.50000    0.36861
2478.00000    0.40793
2478.50000    0.44655
2479.00000    0.48385
2479.50000    0.51918
2480.00000    0.55185
2480.50000    0.58122
2481.00000    0.60667
2481.50000    0.62762
2482.00000    0.64359
2482.50000    0.65419
2483.00000    0.65916
2483.50000    0.65834
2484.00000    0.65174
2484.50000    0.63947
2485.00000    0.62179
2485.50000    0.59911
2486.00000    0.57190
2486.50000    0.54077
2487.00000    0.50637
2487.50000    0.46939
2488.00000    0.43057
2488.50000    0.39062
2489.00000    0.35023
2489.50000    0.31005
2490.00000    0.27066
2490.50000    0.23254
2491.00000    0.19611
2491.50000    0.16169
2492.00000    0.12949
2492.50000    0.09967
2493.00000    0.07227
2493.50000    0.04731
2494.00000    0.02471
2494.50000    0.00437
2495.00000   -0.01382
2495.50000   -0.03001
2496.00000   -0.04434
2496.50000   -0.05695
2497.00000   -0.06796
2497.50000   -0.07748
2498.00000   -0.08559
2498.50000   -0.09238
2499.00000   -0.09788
2499.50000   -0.10216
2500.00000   -0.10524
2500.50000   -0.10715
2501.00000   -0.10795
2501.50000   -0.10767
2502.00000   -0.10637
2502.50000   -0.10411
2503.00000   -0.10097
2503.50000   -0.09704
2504.00000   -0.09242
2504.50000   -0.08721
2505.00000   -0.08151
2505.50000   -0.07542
2506.00000   -0.06903
2506.50000   -0.06243
2507.00000   -0.05568
2507.50000   -0.04885
2508.00000   -0.04199
2508.50000   -0.03512
2509.00000   -0.02827
2509.50000   -0.02147
2510.00000   -0.01474
2510.50000   -0.00811
2511.00000   -0.00162
2511.50000    0.00466
2512.00000    0.01067
2512.50000    0.01630
2513.00000    0.02143
2513.50000    0.02592
2514.00000    0.02959
2514.50000    0.03228
2515.00000    0.03380
2515.50000    0.03399
2516.00000    0.03266
2516.50000    0.02969
2517.00000    0.02497
2517.50000    0.01844
2518.00000    0.01010
2518.50000   -0.00001
2519.00000   -0.01175
2519.50000   -0.02494
2520.00000   -0.03932
2520.50000   -0.05457
2521.00000   -0.07032
2521.50000   -0.08612
2522.00000   -0.10152
2522.50000   -0.11602
2523.00000   -0.12911
2523.50000   -0.14029
2524.00000   -0.14908
2524.50000   -0.15503
2525.00000   -0.15772
2525.50000   -0.15682
2526.00000   -0.15205
2526.50000   -0.14320
2527.00000   -0.13017
2527.50000   -0.11293
2528.00000   -0.09153
2528.50000   -0.06614
2529.00000   -0.03696
2529.50000   -0.00431
2530.00000    0.03146
2530.50000    0.06994
2531.00000    0.11070
2531.50000    0.15326
2532.00000    0.19716
2532.50000    0.24194
2533.00000    0.28719
2533.50000    0.33250
2534.00000    0.37753
2534.50000    0.42199
2535.00000    0.46563
2535.50000    0.50827
2536.00000    0.54979
2536.50000    0.59008
2537.00000    0.62907
2537.50000    0.66671
2538.00000    0.70294
2538.50000    0.73769
2539.00000    0.77082
2539.50000    0.80218
2540.00000    0.83154
2540.50000    0.85859
2541.00000    0.88299
2541.50000    0.90428
2542.00000    0.92200
2542.50000    0.93561
2543.00000    0.94457
2543.50000    0.94835
2544.00000    0.94645
2544.50000    0.93843
2545.00000    0.92394
2545.50000    0.90276
2546.00000    0.87482
2546.50000    0.84019
2547.00000    0.79915
2547.50000    0.75212
2548.00000    0.69974
2548.50000    0.64278
2549.00000    0.58217
2549.50000    0.51897
2550.00000    0.45431
2550.50000    0.38937
2551.00000    0.32536
2551.50000    0.26343
2552.00000    0.20468
2552.50000    0.15007
2553.00000    0.10043
2553.50000    0.05642
2554.00000    0.01848
2554.50000   -0.01312
2555.00000   -0.03835
2555.50000   -0.05737
2556.00000   -0.07053
2556.50000   -0.07836
2557.00000   -0.08150
2557.50000   -0.08072
2558.00000   -0.07683
2558.50000   -0.07070
2559.00000   -0.06314
2559.50000   -0.05494
2560.00000   -0.04681
2560.50000   -0.03931
2561.00000   -0.03292
2561.50000   -0.02794
2562.00000   -0.02454
2562.50000   -0.02274
2563.00000   -0.02245
2563.50000   -0.02344
2564.00000   -0.02541
2564.50000   -0.02799
2565.00000   -0.03079
2565.50000   -0.03339
2566.00000   -0.03540
2566.50000   -0.03648
2567.00000   -0.03632
2567.50000   -0.03469
2568.00000   -0.03143
2568.50000   -0.02643
2569.00000   -0.01967
2569.50000   -0.01116
2570.00000   -0.00094
2570.50000    0.01091
2571.00000    0.02432
2571.50000    0.03919
2572.00000    0.05548
2572.50000    0.07314
2573.00000    0.09214
2573.50000    0.11248
2574.00000    0.13416
2574.50000    0.15720
2575.00000    0.18160
2575.50000    0.20733
2576.00000    0.23435
2576.50000    0.26257
2577.00000    0.29184
2577.50000    0.32200
2578.00000    0.35279
2578.50000    0.38395
2579.00000    0.41517
2579.50000    0.44611
2580.00000    0.47646
2580.50000    0.50586
2581.00000    0.53402
2581.50000    0.56064
2582.00000    0.58549
2582.50000    0.60836
2583.00000    0.62909
2583.50000    0.64755
2584.00000    0.66364
2584.50000    0.67730
2585.00000    0.68847
2585.50000    0.69706
2586.00000    0.70301
2586.50000    0.70622
2587.00000    0.70655
2587.50000    0.70386
2588.00000    0.69797
2588.50000    0.68868
2589.00000    0.67580
2589.50000    0.65915
2590.00000    0.63859
2590.50000    0.61400
2591.00000    0.58535
2591.50000    0.55269
2592.00000    0.51617
2592.50000    0.47602
2593.00000    0.43259
2593.50000    0.38632
2594.00000    0.33775
2594.50000    0.28748
2595.00000    0.23615
2595.50000    0.18446
2596.00000    0.13306
2596.50000    0.08263
2597.00000    0.03375
2597.50000   -0.01305
2598.00000   -0.05733
2598.50000   -0.09877
2599.00000   -0.13714
2599.50000   -0.17232
2600.00000   -0.20432
2600.50000   -0.23320
2601.00000   -0.25911
2601.50000   -0.28226
2602.00000   -0.30286
2602.50000   -0.32114
2603.00000   -0.33730
2603.50000   -0.35151
2604.00000   -0.36387
2604.50000   -0.37442
2605.00000   -0.38313
2605.50000   -0.38989
2606.00000   -0.39455
2606.50000   -0.39689
2607.00000   -0.39668
2607.50000   -0.39367
2608.00000   -0.38763
2608.50000   -0.37839
2609.00000   -0.36580
2609.50000   -0.34983
2610.00000   -0.33052
2610.50000   -0.30801
2611.00000   -0.28257
2611.50000   -0.25454
2612.00000   -0.22438
2612.50000   -0.19259
2613.00000   -0.15977
2613.50000   -0.12652
2614.00000   -0.09347
2614.50000   -0.06124
2615.00000   -0.03040
2615.50000   -0.00146
2616.00000    0.02514
2616.50000    0.04903
2617.00000    0.06997
2617.50000    0.08780
2618.00000    0.10247
2618.50000    0.11401
2619.00000    0.12256
2619.50000    0.12831
2620.00000    0.13153
2620.50000    0.13252
2621.00000    0.13162
2621.50000    0.12919
2622.00000    0.12556
2622.50000    0.12110
2623.00000    0.11611
2623.50000    0.11088
2624.00000    0.10567
2624.50000    0.10069
2625.00000    0.09610
2625.50000    0.09202
2626.00000    0.08852
2626.50000    0.08563
2627.00000    0.08334
2627.50000    0.08160
2628.00000    0.08034
2628.50000    0.07944
2629.00000    0.07880
2629.50000    0.07830
2630.00000    0.07782
2630.50000    0.07726
2631.00000    0.07654
2631.50000    0.07561
2632.00000    0.07445
2632.50000    0.07308
2633.00000    0.07158
2633.50000    0.07006
2634.00000    0.06867
2634.50000    0.06759
2635.00000    0.06705
2635.50000    0.06729
2636.00000    0.06856
2636.50000    0.07112
2637.00000    0.07523
2637.50000    0.08112
2638.00000    0.08901
2638.50000    0.09909
2639.00000    0.11152
2639.50000    0.12641
2640.00000    0.14385
2640.50000    0.16387
2641.00000    0.18650
2641.50000    0.21169
2642.00000    0.23938
2642.50000    0.26949
2643.00000    0.30188
2643.50000    0.33641
2644.00000    0.37289
2644.50000    0.41114
2645.00000    0.45093
2645.50000    0.49204
2646.00000    0.53425
2646.50000    0.57733
2647.00000    0.62106
2647.50000    0.66527
2648.00000    0.70981
2648.50000    0.75457
2649.00000    0.79952
2649.50000    0.84470
2650.00000    0.89021
2650.50000    0.93627
2651.00000    0.98313
2651.50000    1.03118
2652.00000    1.08082
2652.50000    1.13256
2653.00000    1.18691
2653.50000    1.24441
2654.00000    1.30561
2654.50000    1.37102
2655.00000    1.44111
2655.50000    1.51627
2656.00000    1.59684
2656.50000    1.68303
2657.00000    1.77498
2657.50000    1.87275
2658.00000    1.97628
2658.50000    2.08546
2659.00000    2.20012
2659.50000    2.32005
2660.00000    2.44503
2660.50000    2.57483
2661.00000    2.70925
2661.50000    2.84812
2662.00000    2.99133
2662.50000    3.13882
2663.00000    3.29057
2663.50000    3.44663
2664.00000    3.60706
2664.50000    3.77199
2665.00000    3.94154
2665.50000    4.11581
2666.00000    4.29492
2666.50000    4.47893
2667.00000    4.66784
2667.50000    4.86161
2668.00000    5.06011
2668.50000    5.26316
2669.00000    5.47046
2669.50000    5.68166
2670.00000    5.89632
2670.50000    6.11392
2671.00000    6.33387
2671.50000    6.55551
2672.00000    6.77810
2672.50000    7.00086
2673.00000    7.22294
2673.50000    7.44342
2674.00000    7.66137
2674.50000    7.87576
2675.00000    8.08557
2675.50000    8.28971
2676.00000    8.48709
2676.50000    8.67660
2677.00000    8.85713
2677.50000    9.02760
2678.00000    9.18697
2678.50000    9.33423
2679.00000    9.46846
2679.50000    9.58885
2680.00000    9.69466
2680.50000    9.78530
2681.00000    9.86032
2681.50000    9.91939
2682.00000    9.96234
2682.50000    9.98917
2683.00000   10.00000
2683.50000    9.99511
2684.00000    9.97491
2684.50000    9.93995
2685.00000    9.89087
2685.50000    9.82842
2686.00000    9.75345
2686.50000    9.66685
2687.00000    9.56958
2687.50000    9.46264
2688.00000    9.34702
2688.50000    9.22375
2689.00000    9.09380
2689.50000    8.95816
2690.00000    8.81773
2690.50000    8.67339
2691.00000    8.52592
2691.50000    8.37604
2692.00000    8.22439
2692.50000    8.07149
2693.00000    7.91779
2693.50000    7.76364
2694.00000    7.60927
2694.50000    7.45486
2695.00000    7.30048
2695.50000    7.14613
2696.00000    6.99174
2696.50000    6.83721
2697.00000    6.68239
2697.50000    6.52709
2698.00000    6.37114
2698.50000    6.21437
2699.00000    6.05660
2699.50000    5.89771
2700.00000    5.73760
2700.50000    5.57624
2701.00000    5.41363
2701.50000    5.24986
2702.00000    5.08508
2702.50000    4.91950
2703.00000    4.75341
2703.50000    4.58718
2704.00000    4.42123
2704.50000    4.25605
2705.00000    4.09219
2705.50000    3.93027
2706.00000    3.77092
2706.50000    3.61480
2707.00000    3.46261
2707.50000    3.31502
2708.00000    3.17270
2708.50000    3.03628
2709.00000    2.90632
2709.50000    2.78333
2710.00000    2.66772
2710.50000    2.55979
2711.00000    2.45971
2711.50000    2.36753
2712.00000    2.28317
2712.50000    2.20637
2713.00000    2.13676
2713.50000    2.07381
2714.00000    2.01686
2714.50000    1.96514
2715.00000    1.91777
2715.50000    1.87381
2716.00000    1.83225
2716.50000    1.79209
2717.00000    1.75232
2717.50000    1.71199
2718.00000    1.67022
2718.50000    1.62626
2719.00000    1.57946
2719.50000    1.52937
2720.00000    1.47566
2720.50000    1.41825
2721.00000    1.35719
2721.50000    1.29274
2722.00000    1.22532
2722.50000    1.15550
2723.00000    1.08396
2723.50000    1.01147
2724.00000    0.93885
2724.50000    0.86693
2725.00000    0.79652
2725.50000    0.72836
2726.00000    0.66311
2726.50000    0.60132
2727.00000    0.54339
2727.50000    0.48959
2728.00000    0.44006
2728.50000    0.39482
2729.00000    0.35375
2729.50000    0.31666
2730.00000    0.28331
2730.50000    0.25340
2731.00000    0.22665
2731.50000    0.20278
2732.00000    0.18159
2732.50000    0.16289
2733.00000    0.14660
2733.50000    0.13268
2734.00000    0.12115
2734.50000    0.11206
2735.00000    0.10548
2735.50000    0.10150
2736.00000    0.10012
2736.50000    0.10131
2737.00000    0.10496
2737.50000    0.11084
2738.00000    0.11859
2738.50000    0.12778
2739.00000    0.13784
2739.50000    0.14811
2740.00000    0.15787
2740.50000    0.16636
2741.00000    0.17280
2741.50000    0.17645
2742.00000    0.17663
2742.50000    0.17275
2743.00000    0.16434
2743.50000    0.15110
2744.00000    0.13286
2744.50000    0.10963
2745.00000    0.08162
2745.50000    0.04915
2746.00000    0.01275
2746.50000   -0.02697
2747.00000   -0.06924
2747.50000   -0.11325
2748.00000   -0.15808
2748.50000   -0.20282
2749.00000   -0.24655
2749.50000   -0.28834
2750.00000   -0.32735
2750.50000   -0.36277
2751.00000   -0.39391
2751.50000   -0.42015
2752.00000   -0.44103
2752.50000   -0.45617
2753.00000   -0.46538
2753.50000   -0.46856
2754.00000   -0.46578
2754.50000   -0.45725
2755.00000   -0.44330
2755.50000   -0.42437
2756.00000   -0.40103
2756.50000   -0.37389
2757.00000   -0.34366
2757.50000   -0.31105
2758.00000   -0.27681
2758.50000   -0.24163
2759.00000   -0.20620
2759.50000   -0.17110
2760.00000   -0.13684
2760.50000   -0.10381
2761.00000   -0.07231
2761.50000   -0.04250
2762.00000   -0.01443
2762.50000    0.01196
2763.00000    0.03683
2763.50000    0.06041
2764.00000    0.08300
2764.50000    0.10491
2765.00000    0.12651
2765.50000    0.14814
2766.00000    0.17010
2766.50000    0.19270
2767.00000    0.21617
2767.50000    0.24067
2768.00000    0.26632
2768.50000    0.29318
2769.00000    0.32120
2769.50000    0.35032
2770.00000    0.38038
2770.50000    0.41117
2771.00000    0.44242
2771.50000    0.47383
2772.00000    0.50503
2772.50000    0.53561
2773.00000    0.56512
2773.50000    0.59308
2774.00000    0.61898
2774.50000    0.64229
2775.00000    0.66247
2775.50000    0.67899
2776.00000    0.69134
2776.50000    0.69903
2777.00000    0.70164
2777.50000    0.69882
2778.00000    0.69032
2778.50000    0.67597
2779.00000    0.65574
2779.50000    0.62971
2780.00000    0.59810
2780.50000    0.56126
2781.00000    0.51965
2781.50000    0.47385
2782.00000    0.42454
2782.50000    0.37245
2783.00000    0.31838
2783.50000    0.26316
2784.00000    0.20761
2784.50000    0.15253
2785.00000    0.09869
2785.50000    0.04680
2786.00000   -0.00251
2786.50000   -0.04867
2787.00000   -0.09122
2787.50000   -0.12978
2788.00000   -0.16403
2788.50000   -0.19376
2789.00000   -0.21883
2789.50000   -0.23915
2790.00000   -0.25474
2790.50000   -0.26562
2791.00000   -0.27190
2791.50000   -0.27373
2792.00000   -0.27129
2792.50000   -0.26482
2793.00000   -0.25459
2793.50000   -0.24089
2794.00000   -0.22405
2794.50000   -0.20443
2795.00000   -0.18241
2795.50000   -0.15839
2796.00000   -0.13275
2796.50000   -0.10592
2797.00000   -0.07828
2797.50000   -0.05022
2798.00000   -0.02212
2798.50000    0.00567
2799.00000    0.03285
2799.50000    0.05912
2800.00000    0.08424
2800.50000    0.10798
2801.00000    0.13016
2801.50000    0.15063
2802.00000    0.16925
2802.50000    0.18594
2803.00000    0.20061
2803.50000    0.21320
2804.00000    0.22368
2804.50000    0.23201
2805.00000    0.23817
2805.50000    0.24216
2806.00000    0.24398
2806.50000    0.24362
2807.00000    0.24109
2807.50000    0.23641
2808.00000    0.22958
2808.50000    0.22063
2809.00000    0.20956
2809.50000    0.19642
2810.00000    0.18123
2810.50000    0.16403
2811.00000    0.14491
2811.50000    0.12394
2812.00000    0.10126
2812.50000    0.07704
2813.00000    0.05149
2813.50000    0.02488
2814.00000   -0.00243
2814.50000   -0.03005
2815.00000   -0.05750
2815.50000   -0.08424
2816.00000   -0.10968
2816.50000   -0.13318
2817.00000   -0.15406
2817.50000   -0.17164
2818.00000   -0.18526
2818.50000   -0.19429
2819.00000   -0.19813
2819.50000   -0.19631
2820.00000   -0.18843
2820.50000   -0.17422
2821.00000   -0.15356
2821.50000   -0.12647
2822.00000   -0.09310
2822.50000   -0.05378
2823.00000   -0.00896
2823.50000    0.04079
2824.00000    0.09478
2824.50000    0.15222
2825.00000    0.21228
2825.50000    0.27405
2826.00000    0.33662
2826.50000    0.39906
2827.00000    0.46047
2827.50000    0.51998
2828.00000    0.57675
2828.50000    0.63001
2829.00000    0.67906
2829.50000    0.72326
2830.00000    0.76204
2830.50000    0.79493
2831.00000    0.82152
2831.50000    0.84150
2832.00000    0.85463
2832.50000    0.86077
2833.00000    0.85985
2833.50000    0.85194
2834.00000    0.83714
2834.50000    0.81570
2835.00000    0.78795
2835.50000    0.75429
2836.00000    0.71526
2836.50000    0.67145
2837.00000    0.62356
2837.50000    0.57233
2838.00000    0.51860
2838.50000    0.46322
2839.00000    0.40708
2839.50000    0.35110
2840.00000    0.29616
2840.50000    0.24311
2841.00000    0.19277
2841.50000    0.14584
2842.00000    0.10295
2842.50000    0.06460
2843.00000    0.03118
2843.50000    0.00291
2844.00000   -0.02013
2844.50000   -0.03799
2845.00000   -0.05091
2845.50000   -0.05921
2846.00000   -0.06337
2846.50000   -0.06393
2847.00000   -0.06153
2847.50000   -0.05684
2848.00000   -0.05054
2848.50000   -0.04329
2849.00000   -0.03573
2849.50000   -0.02839
2850.00000   -0.02177
2850.50000   -0.01623
2851.00000   -0.01204
2851.50000   -0.00936
2852.00000   -0.00827
2852.50000   -0.00874
2853.00000   -0.01070
2853.50000   -0.01399
2854.00000   -0.01843
2854.50000   -0.02384
2855.00000   -0.03003
2855.50000   -0.03681
2856.00000   -0.04403
2856.50000   -0.05156
2857.00000   -0.05929
2857.50000   -0.06714
2858.00000   -0.07502
2858.50000   -0.08286
2859.00000   -0.09056
2859.50000   -0.09801
2860.00000   -0.10504
2860.50000   -0.11147
2861.00000   -0.11706
2861.50000   -0.12154
2862.00000   -0.12459
2862.50000   -0.12591
2863.00000   -0.12518
2863.50000   -0.12210
2864.00000   -0.11642
2864.50000   -0.10797
2865.00000   -0.09663
2865.50000   -0.08241
2866.00000   -0.06541
2866.50000   -0.04586
2867.00000   -0.02407
2867.50000   -0.00049
2868.00000    0.02439
2868.50000    0.04997
2869.00000    0.07564
2869.50000    0.10075
2870.00000    0.12468
2870.50000    0.14681
2871.00000    0.16660
2871.50000    0.18357
2872.00000    0.19733
2872.50000    0.20759
2873.00000    0.21417
2873.50000    0.21699
2874.00000    0.21608
2874.50000    0.21158
2875.00000    0.20368
2875.50000    0.19268
2876.00000    0.17895
2876.50000    0.16288
2877.00000    0.14491
2877.50000    0.12549
2878.00000    0.10510
2878.50000    0.08418
2879.00000    0.06317
2879.50000    0.04247
2880.00000    0.02245
2880.50000    0.00342
2881.00000   -0.01433
2881.50000   -0.03060
2882.00000   -0.04521
2882.50000   -0.05806
2883.00000   -0.06907
2883.50000   -0.07823
2884.00000   -0.08555
2884.50000   -0.09109
2885.00000   -0.09491
2885.50000   -0.09712
2886.00000   -0.09783
2886.50000   -0.09714
2887.00000   -0.09520
2887.50000   -0.09211
2888.00000   -0.08803
2888.50000   -0.08307
2889.00000   -0.07739
2889.50000   -0.07113
2890.00000   -0.06444
2890.50000   -0.05748
2891.00000   -0.05040
2891.50000   -0.04338
2892.00000   -0.03657
2892.50000   -0.03011
2893.00000   -0.02415
2893.50000   -0.01879
2894.00000   -0.01411
2894.50000   -0.01014
2895.00000   -0.00688
2895.50000   -0.00430
2896.00000   -0.00229
2896.50000   -0.00075
2897.00000    0.00048
2897.50000    0.00154
2898.00000    0.00259
2898.50000    0.00375
2899.00000    0.00511
2899.50000    0.00670
2900.00000    0.00849
2900.50000    0.01035
2901.00000    0.01212
2901.50000    0.01353
2902.00000    0.01429
2902.50000    0.01404
2903.00000    0.01243
2903.50000    0.00914
2904.00000    0.00388
2904.50000   -0.00355
2905.00000   -0.01327
2905.50000   -0.02524
2906.00000   -0.03934
2906.50000   -0.05526
2907.00000   -0.07259
2907.50000   -0.09082
2908.00000   -0.10932
2908.50000   -0.12742
2909.00000   -0.14444
2909.50000   -0.15969
2910.00000   -0.17256
2910.50000   -0.18249
2911.00000   -0.18908
2911.50000   -0.19203
2912.00000   -0.19119
2912.50000   -0.18654
2913.00000   -0.17821
2913.50000   -0.16642
2914.00000   -0.15150
2914.50000   -0.13382
2915.00000   -0.11378
2915.50000   -0.09179
2916.00000   -0.06822
2916.50000   -0.04337
2917.00000   -0.01750
2917.50000    0.00921
2918.00000    0.03665
2918.50000    0.06479
2919.00000    0.09360
2919.50000    0.12312
2920.00000    0.15338
2920.50000    0.18437
2921.00000    0.21608
2921.50000    0.24842
2922.00000    0.28125
2922.50000    0.31435
2923.00000    0.34747
2923.50000    0.38028
2924.00000    0.41241
2924.50000    0.44347
2925.00000    0.47308
2925.50000    0.50086
2926.00000    0.52647
2926.50000    0.54962
2927.00000    0.57009
2927.50000    0.58772
2928.00000    0.60243
2928.50000    0.61422
2929.00000    0.62313
2929.50000    0.62930
2930.00000    0.63286
2930.50000    0.63402
2931.00000    0.63296
2931.50000    0.62987
2932.00000    0.62495
2932.50000    0.61834
2933.00000    0.61016
2933.50000    0.60049
2934.00000    0.58936
2934.50000    0.57677
2935.00000    0.56270
2935.50000    0.54709
2936.00000    0.52989
2936.50000    0.51104
2937.00000    0.49050
2937.50000    0.46827
2938.00000    0.44437
2938.50000    0.41888
2939.00000    0.39195
2939.50000    0.36377
2940.00000    0.33460
2940.50000    0.30473
2941.00000    0.27451
2941.50000    0.24431
2942.00000    0.21451
2942.50000    0.18548
2943.00000    0.15758
2943.50000    0.13110
2944.00000    0.10630
2944.50000    0.08335
2945.00000    0.06234
2945.50000    0.04328
2946.00000    0.02609
2946.50000    0.01063
2947.00000   -0.00332
2947.50000   -0.01601
2948.00000   -0.02772
2948.50000   -0.03875
2949.00000   -0.04935
2949.50000   -0.05975
2950.00000   -0.07013
2950.50000   -0.08058
2951.00000   -0.09112
2951.50000   -0.10169
2952.00000   -0.11215
2952.50000   -0.12230
2953.00000   -0.13188
2953.50000   -0.14059
2954.00000   -0.14813
2954.50000   -0.15419
2955.00000   -0.15850
2955.50000   -0.16083
2956.00000   -0.16100
2956.50000   -0.15891
2957.00000   -0.15453
2957.50000   -0.14792
2958.00000   -0.13922
2958.50000   -0.12862
2959.00000   -0.11638
2959.50000   -0.10281
2960.00000   -0.08823
2960.50000   -0.07299
2961.00000   -0.05744
2961.50000   -0.04190
2962.00000   -0.02667
2962.50000   -0.01200
2963.00000    0.00190
2963.50000    0.01487
2964.00000    0.02680
2964.50000    0.03764
2965.00000    0.04736
2965.50000    0.05598
2966.00000    0.06353
2966.50000    0.07006
2967.00000    0.07561
2967.50000    0.08022
2968.00000    0.08392
2968.50000    0.08670
2969.00000    0.08855
2969.50000    0.08942
2970.00000    0.08926
2970.50000    0.08798
2971.00000    0.08552
2971.50000    0.08182
2972.00000    0.07684
2972.50000    0.07059
2973.00000    0.06312
2973.50000    0.05453
2974.00000    0.04499
2974.50000    0.03474
2975.00000    0.02407
2975.50000    0.01333
2976.00000    0.00288
2976.50000   -0.00687
2977.00000   -0.01552
2977.50000   -0.02269
2978.00000   -0.02805
2978.50000   -0.03133
2979.00000   -0.03233
2979.50000   -0.03098
2980.00000   -0.02728
2980.50000   -0.02135
2981.00000   -0.01341
2981.50000   -0.00376
2982.00000    0.00722
2982.50000    0.01907
2983.00000    0.03132
2983.50000    0.04349
2984.00000    0.05508
2984.50000    0.06566
2985.00000    0.07481
2985.50000    0.08220
2986.00000    0.08755
2986.50000    0.09069
2987.00000    0.09152
2987.50000    0.09000
2988.00000    0.08620
2988.50000    0.08025
2989.00000    0.07233
2989.50000    0.06269
2990.00000    0.05161
2990.50000    0.03939
2991.00000    0.02638
2991.50000    0.01290
2992.00000   -0.00071
2992.50000   -0.01414
2993.00000   -0.02710
2993.50000   -0.03933
2994.00000   -0.05063
2994.50000   -0.06082
2995.00000   -0.06982
2995.50000   -0.07758
2996.00000   -0.08412
2996.50000   -0.08952
2997.00000   -0.09392
2997.50000   -0.09748
2998.00000   -0.10040
2998.50000   -0.10290
2999.00000   -0.10515
2999.50000   -0.10732
