1200.50000   -0.07265
1201.00000   -0.07047
1201.50000   -0.06833
1202.00000   -0.06627
1202.50000   -0.06432
1203.00000   -0.06256
1203.50000   -0.06101
1204.00000   -0.05973
1204.50000   -0.05874
1205.00000   -0.05807
1205.50000   -0.05769
1206.00000   -0.05757
1206.50000   -0.05766
1207.00000   -0.05786
1207.50000   -0.05808
1208.00000   -0.05819
1208.50000   -0.05806
1209.00000   -0.05752
1209.50000   -0.05645
1210.00000   -0.05469
1210.50000   -0.05213
1211.00000   -0.04865
1211.50000   -0.04418
1212.00000   -0.03866
1212.50000   -0.03207
1213.00000   -0.02443
1213.50000   -0.01578
1214.00000   -0.00621
1214.50000    0.00419
1215.00000    0.01528
1215.50000    0.02692
1216.00000    0.03895
1216.50000    0.05118
1217.00000    0.06346
1217.50000    0.07559
1218.00000    0.08742
1218.50000    0.09878
1219.00000    0.10952
1219.50000    0.11950
1220.00000    0.12860
1220.50000    0.13670
1221.00000    0.14371
1221.50000    0.14954
1222.00000    0.15412
1222.50000    0.15737
1223.00000    0.15924
1223.50000    0.15969
1224.00000    0.15869
1224.50000    0.15621
1225.00000    0.15223
1225.50000    0.14678
1226.00000    0.13987
1226.50000    0.13154
1227.00000    0.12186
1227.50000    0.11090
1228.00000    0.09879
1228.50000    0.08564
1229.00000    0.07160
1229.50000    0.05686
1230.00000    0.04159
1230.50000    0.02599
1231.00000    0.01028
1231.50000   -0.00534
1232.00000   -0.02065
1232.50000   -0.03546
1233.00000   -0.04957
1233.50000   -0.06281
1234.00000   -0.07502
1234.50000   -0.08608
1235.00000   -0.09589
1235.50000   -0.10437
1236.00000   -0.11147
1236.50000   -0.11718
1237.00000   -0.12150
1237.50000   -0.12446
1238.00000   -0.12611
1238.50000   -0.12650
1239.00000   -0.12571
1239.50000   -0.12382
1240.00000   -0.12092
1240.50000   -0.11708
1241.00000   -0.11239
1241.50000   -0.10694
1242.00000   -0.10080
1242.50000   -0.09403
1243.00000   -0.08671
1243.50000   -0.07889
1244.00000   -0.07062
1244.50000   -0.06196
1245.00000   -0.05294
1245.50000   -0.04361
1246.00000   -0.03400
1246.50000   -0.02414
1247.00000   -0.01407
1247.50000   -0.00380
1248.00000    0.00663
1248.50000    0.01720
1249.00000    0.02790
1249.50000    0.03870
1250.00000    0.04960
1250.50000    0.06057
1251.00000    0.07159
1251.50000    0.08266
1252.00000    0.09374
1252.50000    0.10481
1253.00000    0.11582
1253.50000    0.12673
1254.00000    0.13745
1254.50000    0.14792
1255.00000    0.15803
1255.50000    0.16766
1256.00000    0.17668
1256.50000    0.18493
1257.00000    0.19225
1257.50000    0.19845
1258.00000    0.20337
1258.50000    0.20681
1259.00000    0.20860
1259.50000    0.20856
1260.00000    0.20655
1260.50000    0.20244
1261.00000    0.19614
1261.50000    0.18758
1262.00000    0.17676
1262.50000    0.16369
1263.00000    0.14845
1263.50000    0.13117
1264.00000    0.11201
1264.50000    0.09120
1265.00000    0.06897
1265.50000    0.04564
1266.00000    0.02153
1266.50000   -0.00302
1267.00000   -0.02763
1267.50000   -0.05192
1268.00000   -0.07551
1268.50000   -0.09805
1269.00000   -0.11916
1269.50000   -0.13854
1270.00000   -0.15589
1270.50000   -0.17096
1271.00000   -0.18357
1271.50000   -0.19356
1272.00000   -0.20086
1272.50000   -0.20545
1273.00000   -0.20736
1273.50000   -0.20672
1274.00000   -0.20369
1274.50000   -0.19849
1275.00000   -0.19141
1275.50000   -0.18277
1276.00000   -0.17294
1276.50000   -0.16231
1277.00000   -0.15129
1277.50000   -0.14029
1278.00000   -0.12972
1278.50000   -0.11995
1279.00000   -0.11133
1279.50000   -0.10416
1280.00000   -0.09867
1280.50000   -0.09503
1281.00000   -0.09334
1281.50000   -0.09361
1282.00000   -0.09579
1282.50000   -0.09971
1283.00000   -0.10515
1283.50000   -0.11182
1284.00000   -0.11936
1284.50000   -0.12733
1285.00000   -0.13530
1285.50000   -0.14278
1286.00000   -0.14929
1286.50000   -0.15433
1287.00000   -0.15745
1287.50000   -0.15824
1288.00000   -0.15631
1288.50000   -0.15138
1289.00000   -0.14319
1289.50000   -0.13160
1290.00000   -0.11653
1290.50000   -0.09800
1291.00000   -0.07608
1291.50000   -0.05095
1292.00000   -0.02286
1292.50000    0.00789
1293.00000    0.04094
1293.50000    0.07587
1294.00000    0.11224
1294.50000    0.14957
1295.00000    0.18737
1295.50000    0.22515
1296.00000    0.26240
1296.50000    0.29864
1297.00000    0.33340
1297.50000    0.36622
1298.00000    0.39668
1298.50000    0.42437
1299.00000    0.44893
1299.50000    0.47003
1300.00000    0.48739
1300.50000    0.50076
1301.00000    0.50994
1301.50000    0.51480
1302.00000    0.51525
1302.50000    0.51125
1303.00000    0.50283
1303.50000    0.49009
1304.00000    0.47320
1304.50000    0.45238
1305.00000    0.42791
1305.50000    0.40015
1306.00000    0.36949
1306.50000    0.33638
1307.00000    0.30132
1307.50000    0.26482
1308.00000    0.22741
1308.50000    0.18964
1309.00000    0.15204
1309.50000    0.11513
1310.00000    0.07939
1310.50000    0.04527
1311.00000    0.01317
1311.50000   -0.01658
1312.00000   -0.04369
1312.50000   -0.06797
1313.00000   -0.08926
1313.50000   -0.10748
1314.00000   -0.12261
1314.50000   -0.13465
1315.00000   -0.14368
1315.50000   -0.14979
1316.00000   -0.15309
1316.50000   -0.15371
1317.00000   -0.15179
1317.50000   -0.14745
1318.00000   -0.14080
1318.50000   -0.13194
1319.00000   -0.12094
1319.50000   -0.10785
1320.00000   -0.09270
1320.50000   -0.07549
1321.00000   -0.05619
1321.50000   -0.03477
1322.00000   -0.01118
1322.50000    0.01463
1323.00000    0.04273
1323.50000    0.07318
1324.00000    0.10604
1324.50000    0.14137
1325.00000    0.17923
1325.50000    0.21964
1326.00000    0.26268
1326.50000    0.30836
1327.00000    0.35675
1327.50000    0.40789
1328.00000    0.46182
1328.50000    0.51861
1329.00000    0.57833
1329.50000    0.64106
1330.00000    0.70687
1330.50000    0.77585
1331.00000    0.84809
1331.50000    0.92365
1332.00000    1.00259
1332.50000    1.08493
1333.00000    1.17065
1333.50000    1.25969
1334.00000    1.35193
1334.50000    1.44718
1335.00000    1.54518
1335.50000    1.64557
1336.00000    1.74793
1336.50000    1.85175
1337.00000    1.95641
1337.50000    2.06126
1338.00000    2.16553
1338.50000    2.26842
1339.00000    2.36908
1339.50000    2.46665
1340.00000    2.56023
1340.50000    2.64895
1341.00000    2.73197
1341.50000    2.80851
1342.00000    2.87783
1342.50000    2.93931
1343.00000    2.99240
1343.50000    3.03668
1344.00000    3.07183
1344.50000    3.09768
1345.00000    3.11415
1345.50000    3.12133
1346.00000    3.11938
1346.50000    3.10861
1347.00000    3.08942
1347.50000    3.06228
1348.00000    3.02774
1348.50000    2.98641
1349.00000    2.93891
1349.50000    2.88589
1350.00000    2.82799
1350.50000    2.76585
1351.00000    2.70006
1351.50000    2.63119
1352.00000    2.55973
1352.50000    2.48614
1353.00000    2.41083
1353.50000    2.33414
1354.00000    2.25635
1354.50000    2.17771
1355.00000    2.09841
1355.50000    2.01861
1356.00000    1.93845
1356.50000    1.85804
1357.00000    1.77750
1357.50000    1.69694
1358.00000    1.61647
1358.50000    1.53623
1359.00000    1.45638
1359.50000    1.37708
1360.00000    1.29854
1360.50000    1.22097
1361.00000    1.14463
1361.50000    1.06975
1362.00000    0.99663
1362.50000    0.92554
1363.00000    0.85675
1363.50000    0.79056
1364.00000    0.72722
1364.50000    0.66698
1365.00000    0.61008
1365.50000    0.55671
1366.00000    0.50704
1366.50000    0.46120
1367.00000    0.41929
1367.50000    0.38135
1368.00000    0.34739
1368.50000    0.31740
1369.00000    0.29129
1369.50000    0.26897
1370.00000    0.25026
1370.50000    0.23499
1371.00000    0.22293
1371.50000    0.21382
1372.00000    0.20736
1372.50000    0.20324
1373.00000    0.20111
1373.50000    0.20060
1374.00000    0.20134
1374.50000    0.20293
1375.00000    0.20499
1375.50000    0.20712
1376.00000    0.20895
1376.50000    0.21013
1377.00000    0.21033
1377.50000    0.20927
1378.00000    0.20671
1378.50000    0.20246
1379.00000    0.19640
1379.50000    0.18845
1380.00000    0.17861
1380.50000    0.16693
1381.00000    0.15355
1381.50000    0.13865
1382.00000    0.12244
1382.50000    0.10521
1383.00000    0.08727
1383.50000    0.06892
1384.00000    0.05052
1384.50000    0.03237
1385.00000    0.01479
1385.50000   -0.00196
1386.00000   -0.01765
1386.50000   -0.03210
1387.00000   -0.04521
1387.50000   -0.05691
1388.00000   -0.06721
1388.50000   -0.07618
1389.00000   -0.08392
1389.50000   -0.09061
1390.00000   -0.09644
1390.50000   -0.10163
1391.00000   -0.10641
1391.50000   -0.11101
1392.00000   -0.11563
1392.50000   -0.12047
1393.00000   -0.12567
1393.50000   -0.13132
1394.00000   -0.13747
1394.50000   -0.14412
1395.00000   -0.15119
1395.50000   -0.15858
1396.00000   -0.16612
1396.50000   -0.17362
1397.00000   -0.18087
1397.50000   -0.18762
1398.00000   -0.19362
1398.50000   -0.19864
1399.00000   -0.20246
1399.50000   -0.20487
1400.00000   -0.20571
1400.50000   -0.20487
1401.00000   -0.20225
1401.50000   -0.19783
1402.00000   -0.19162
1402.50000   -0.18368
1403.00000   -0.17412
1403.50000   -0.16307
1404.00000   -0.15071
1404.50000   -0.13723
1405.00000   -0.12287
1405.50000   -0.10784
1406.00000   -0.09239
1406.50000   -0.07676
1407.00000   -0.06120
1407.50000   -0.04595
1408.00000   -0.03124
1408.50000   -0.01728
1409.00000   -0.00429
1409.50000    0.00755
1410.00000    0.01805
1410.50000    0.02707
1411.00000    0.03447
1411.50000    0.04012
1412.00000    0.04396
1412.50000    0.04590
1413.00000    0.04593
1413.50000    0.04403
1414.00000    0.04024
1414.50000    0.03460
1415.00000    0.02722
1415.50000    0.01821
1416.00000    0.00771
1416.50000   -0.00410
1417.00000   -0.01704
1417.50000   -0.03090
1418.00000   -0.04546
1418.50000   -0.06050
1419.00000   -0.07577
1419.50000   -0.09105
1420.00000   -0.10611
1420.50000   -0.12074
1421.00000   -0.13472
1421.50000   -0.14786
1422.00000   -0.15996
1422.50000   -0.17084
1423.00000   -0.18033
1423.50000   -0.18827
1424.00000   -0.19449
1424.50000   -0.19883
1425.00000   -0.20114
1425.50000   -0.20127
1426.00000   -0.19908
1426.50000   -0.19443
1427.00000   -0.18720
1427.50000   -0.17728
1428.00000   -0.16461
1428.50000   -0.14914
1429.00000   -0.13086
1429.50000   -0.10982
1430.00000   -0.08612
1430.50000   -0.05992
1431.00000   -0.03143
1431.50000   -0.00096
1432.00000    0.03116
1432.50000    0.06452
1433.00000    0.09866
1433.50000    0.13308
1434.00000    0.16726
1434.50000    0.20067
1435.00000    0.23276
1435.50000    0.26302
1436.00000    0.29096
1436.50000    0.31615
1437.00000    0.33821
1437.50000    0.35684
1438.00000    0.37180
1438.50000    0.38295
1439.00000    0.39024
1439.50000    0.39369
1440.00000    0.39341
1440.50000    0.38958
1441.00000    0.38243
1441.50000    0.37227
1442.00000    0.35942
1442.50000    0.34424
1443.00000    0.32710
1443.50000    0.30836
1444.00000    0.28838
1444.50000    0.26751
1445.00000    0.24607
1445.50000    0.22435
1446.00000    0.20264
1446.50000    0.18117
1447.00000    0.16017
1447.50000    0.13984
1448.00000    0.12039
1448.50000    0.10198
1449.00000    0.08478
1449.50000    0.06896
1450.00000    0.05468
1450.50000    0.04209
1451.00000    0.03132
1451.50000    0.02251
1452.00000    0.01576
1452.50000    0.01116
1453.00000    0.00876
1453.50000    0.00856
1454.00000    0.01053
1454.50000    0.01459
1455.00000    0.02062
1455.50000    0.02843
1456.00000    0.03779
1456.50000    0.04845
1457.00000    0.06009
1457.50000    0.07239
1458.00000    0.08501
1458.50000    0.09761
1459.00000    0.10986
1459.50000    0.12145
1460.00000    0.13212
1460.50000    0.14166
1461.00000    0.14988
1461.50000    0.15669
1462.00000    0.16204
1462.50000    0.16594
1463.00000    0.16845
1463.50000    0.16970
1464.00000    0.16981
1464.50000    0.16896
1465.00000    0.16733
1465.50000    0.16508
1466.00000    0.16237
1466.50000    0.15934
1467.00000    0.15608
1467.50000    0.15265
1468.00000    0.14904
1468.50000    0.14523
1469.00000    0.14114
1469.50000    0.13664
1470.00000    0.13160
1470.50000    0.12585
1471.00000    0.11921
1471.50000    0.11154
1472.00000    0.10266
1472.50000    0.09249
1473.00000    0.08092
1473.50000    0.06794
1474.00000    0.05354
1474.50000    0.03780
1475.00000    0.02082
1475.50000    0.00276
1476.00000   -0.01619
1476.50000   -0.03581
1477.00000   -0.05587
1477.50000   -0.07610
1478.00000   -0.09625
1478.50000   -0.11608
1479.00000   -0.13536
1479.50000   -0.15387
1480.00000   -0.17144
1480.50000   -0.18790
1481.00000   -0.20312
1481.50000   -0.21700
1482.00000   -0.22945
1482.50000   -0.24042
1483.00000   -0.24984
1483.50000   -0.25767
1484.00000   -0.26387
1484.50000   -0.26841
1485.00000   -0.27124
1485.50000   -0.27234
1486.00000   -0.27166
1486.50000   -0.26919
1487.00000   -0.26490
1487.50000   -0.25880
1488.00000   -0.25091
1488.50000   -0.24129
1489.00000   -0.23002
1489.50000   -0.21722
1490.00000   -0.20306
1490.50000   -0.18772
1491.00000   -0.17146
1491.50000   -0.15455
1492.00000   -0.13727
1492.50000   -0.11995
1493.00000   -0.10290
1493.50000   -0.08645
1494.00000   -0.07088
1494.50000   -0.05648
1495.00000   -0.04347
1495.50000   -0.03204
1496.00000   -0.02233
1496.50000   -0.01443
1497.00000   -0.00834
1497.50000   -0.00406
1498.00000   -0.00148
1498.50000   -0.00048
1499.00000   -0.00091
1499.50000   -0.00257
1500.00000   -0.00525
1500.50000   -0.00875
1501.00000   -0.01285
1501.50000   -0.01737
1502.00000   -0.02213
1502.50000   -0.02699
1503.00000   -0.03182
1503.50000   -0.03655
1504.00000   -0.04110
1504.50000   -0.04544
1505.00000   -0.04954
1505.50000   -0.05340
1506.00000   -0.05700
1506.50000   -0.06033
1507.00000   -0.06338
1507.50000   -0.06611
1508.00000   -0.06846
1508.50000   -0.07039
1509.00000   -0.07179
1509.50000   -0.07258
1510.00000   -0.07263
1510.50000   -0.07183
1511.00000   -0.07007
1511.50000   -0.06723
1512.00000   -0.06324
1512.50000   -0.05801
1513.00000   -0.05153
1513.50000   -0.04379
1514.00000   -0.03483
1514.50000   -0.02473
1515.00000   -0.01361
1515.50000   -0.00163
1516.00000    0.01102
1516.50000    0.02414
1517.00000    0.03748
1517.50000    0.05081
1518.00000    0.06389
1518.50000    0.07647
1519.00000    0.08835
1519.50000    0.09930
1520.00000    0.10917
1520.50000    0.11781
1521.00000    0.12512
1521.50000    0.13103
1522.00000    0.13550
1522.50000    0.13853
1523.00000    0.14015
1523.50000    0.14043
1524.00000    0.13943
1524.50000    0.13727
1525.00000    0.13404
1525.50000    0.12986
1526.00000    0.12486
1526.50000    0.11915
1527.00000    0.11284
1527.50000    0.10605
1528.00000    0.09888
1528.50000    0.09143
1529.00000    0.08379
1529.50000    0.07604
1530.00000    0.06825
1530.50000    0.06048
1531.00000    0.05281
1531.50000    0.04529
1532.00000    0.03797
1532.50000    0.03091
1533.00000    0.02414
1533.50000    0.01772
1534.00000    0.01168
1534.50000    0.00608
1535.00000    0.00094
1535.50000   -0.00369
1536.00000   -0.00777
1536.50000   -0.01128
1537.00000   -0.01417
1537.50000   -0.01642
1538.00000   -0.01800
1538.50000   -0.01888
1539.00000   -0.01906
1539.50000   -0.01852
1540.00000   -0.01727
1540.50000   -0.01532
1541.00000   -0.01270
1541.50000   -0.00946
1542.00000   -0.00566
1542.50000   -0.00139
1543.00000    0.00325
1543.50000    0.00813
1544.00000    0.01310
1544.50000    0.01800
1545.00000    0.02264
1545.50000    0.02685
1546.00000    0.03043
1546.50000    0.03320
1547.00000    0.03500
1547.50000    0.03568
1548.00000    0.03511
1548.50000    0.03320
1549.00000    0.02992
1549.50000    0.02526
1550.00000    0.01927
1550.50000    0.01204
1551.00000    0.00370
1551.50000   -0.00556
1552.00000   -0.01554
1552.50000   -0.02597
1553.00000   -0.03659
1553.50000   -0.04714
1554.00000   -0.05732
1554.50000   -0.06687
1555.00000   -0.07553
1555.50000   -0.08308
1556.00000   -0.08933
1556.50000   -0.09412
1557.00000   -0.09733
1557.50000   -0.09887
1558.00000   -0.09870
1558.50000   -0.09680
1559.00000   -0.09318
1559.50000   -0.08787
1560.00000   -0.08091
1560.50000   -0.07234
1561.00000   -0.06221
1561.50000   -0.05055
1562.00000   -0.03741
1562.50000   -0.02279
1563.00000   -0.00670
1563.50000    0.01088
1564.00000    0.02998
1564.50000    0.05064
1565.00000    0.07291
1565.50000    0.09685
1566.00000    0.12254
1566.50000    0.15004
1567.00000    0.17945
1567.50000    0.21086
1568.00000    0.24439
1568.50000    0.28014
1569.00000    0.31828
1569.50000    0.35898
1570.00000    0.40246
1570.50000    0.44896
1571.00000    0.49877
1571.50000    0.55223
1572.00000    0.60972
1572.50000    0.67165
1573.00000    0.73846
1573.50000    0.81064
1574.00000    0.88865
1574.50000    0.97297
1575.00000    1.06406
1575.50000    1.16234
1576.00000    1.26816
1576.50000    1.38181
1577.00000    1.50349
1577.50000    1.63327
1578.00000    1.77114
1578.50000    1.91693
1579.00000    2.07037
1579.50000    2.23102
1580.00000    2.39835
1580.50000    2.57170
1581.00000    2.75029
1581.50000    2.93323
1582.00000    3.11956
1582.50000    3.30823
1583.00000    3.49812
1583.50000    3.68808
1584.00000    3.87692
1584.50000    4.06341
1585.00000    4.24632
1585.50000    4.42441
1586.00000    4.59647
1586.50000    4.76126
1587.00000    4.91762
1587.50000    5.06437
1588.00000    5.20042
1588.50000    5.32470
1589.00000    5.43621
1589.50000    5.53404
1590.00000    5.61735
1590.50000    5.68541
1591.00000    5.73760
1591.50000    5.77343
1592.00000    5.79254
1592.50000    5.79476
1593.00000    5.78004
1593.50000    5.74852
1594.00000    5.70051
1594.50000    5.63649
1595.00000    5.55712
1595.50000    5.46321
1596.00000    5.35571
1596.50000    5.23573
1597.00000    5.10446
1597.50000    4.96322
1598.00000    4.81336
1598.50000    4.65631
1599.00000    4.49350
1599.50000    4.32635
1600.00000    4.15625
1600.50000    3.98455
1601.00000    3.81251
1601.50000    3.64130
1602.00000    3.47200
1602.50000    3.30559
1603.00000    3.14289
1603.50000    2.98465
1604.00000    2.83147
1604.50000    2.68385
1605.00000    2.54216
1605.50000    2.40668
1606.00000    2.27760
1606.50000    2.15499
1607.00000    2.03889
1607.50000    1.92924
1608.00000    1.82592
1608.50000    1.72880
1609.00000    1.63767
1609.50000    1.55233
1610.00000    1.47256
1610.50000    1.39812
1611.00000    1.32879
1611.50000    1.26436
1612.00000    1.20464
1612.50000    1.14947
1613.00000    1.09871
1613.50000    1.05228
1614.00000    1.01009
1614.50000    0.97213
1615.00000    0.93839
1615.50000    0.90887
1616.00000    0.88363
1616.50000    0.86268
1617.00000    0.84605
1617.50000    0.83376
1618.00000    0.82579
1618.50000    0.82207
1619.00000    0.82247
1619.50000    0.82683
1620.00000    0.83488
1620.50000    0.84630
1621.00000    0.86068
1621.50000    0.87754
1622.00000    0.89632
1622.50000    0.91640
1623.00000    0.93711
1623.50000    0.95775
1624.00000    0.97756
1624.50000    0.99583
1625.00000    1.01183
1625.50000    1.02487
1626.00000    1.03433
1626.50000    1.03964
1627.00000    1.04034
1627.50000    1.03604
1628.00000    1.02648
1628.50000    1.01151
1629.00000    0.99110
1629.50000    0.96532
1630.00000    0.93438
1630.50000    0.89857
1631.00000    0.85828
1631.50000    0.81401
1632.00000    0.76631
1632.50000    0.71578
1633.00000    0.66306
1633.50000    0.60883
1634.00000    0.55375
1634.50000    0.49848
1635.00000    0.44367
1635.50000    0.38989
1636.00000    0.33770
1636.50000    0.28758
1637.00000    0.23995
1637.50000    0.19515
1638.00000    0.15345
1638.50000    0.11505
1639.00000    0.08007
1639.50000    0.04858
1640.00000    0.02056
1640.50000   -0.00405
1641.00000   -0.02536
1641.50000   -0.04353
1642.00000   -0.05874
1642.50000   -0.07120
1643.00000   -0.08115
1643.50000   -0.08883
1644.00000   -0.09447
1644.50000   -0.09831
1645.00000   -0.10059
1645.50000   -0.10150
1646.00000   -0.10126
1646.50000   -0.10003
1647.00000   -0.09799
1647.50000   -0.09525
1648.00000   -0.09196
1648.50000   -0.08820
1649.00000   -0.08408
1649.50000   -0.07966
1650.00000   -0.07503
1650.50000   -0.07022
1651.00000   -0.06531
1651.50000   -0.06033
1652.00000   -0.05533
1652.50000   -0.05034
1653.00000   -0.04540
1653.50000   -0.04053
1654.00000   -0.03575
1654.50000   -0.03105
1655.00000   -0.02642
1655.50000   -0.02185
1656.00000   -0.01728
1656.50000   -0.01266
1657.00000   -0.00788
1657.50000   -0.00287
1658.00000    0.00252
1658.50000    0.00842
1659.00000    0.01499
1659.50000    0.02238
1660.00000    0.03077
1660.50000    0.04031
1661.00000    0.05118
1661.50000    0.06350
1662.00000    0.07741
1662.50000    0.09298
1663.00000    0.11027
1663.50000    0.12930
1664.00000    0.15003
1664.50000    0.17238
1665.00000    0.19624
1665.50000    0.22140
1666.00000    0.24765
1666.50000    0.27469
1667.00000    0.30222
1667.50000    0.32988
1668.00000    0.35726
1668.50000    0.38396
1669.00000    0.40955
1669.50000    0.43360
1670.00000    0.45568
1670.50000    0.47538
1671.00000    0.49232
1671.50000    0.50614
1672.00000    0.51654
1672.50000    0.52327
1673.00000    0.52613
1673.50000    0.52500
1674.00000    0.51981
1674.50000    0.51056
1675.00000    0.49733
1675.50000    0.48025
1676.00000    0.45952
1676.50000    0.43540
1677.00000    0.40818
1677.50000    0.37821
1678.00000    0.34586
1678.50000    0.31153
1679.00000    0.27562
1679.50000    0.23854
1680.00000    0.20070
1680.50000    0.16247
1681.00000    0.12424
1681.50000    0.08636
1682.00000    0.04913
1682.50000    0.01285
1683.00000   -0.02221
1683.50000   -0.05582
1684.00000   -0.08775
1684.50000   -0.11781
1685.00000   -0.14582
1685.50000   -0.17161
1686.00000   -0.19500
1686.50000   -0.21583
1687.00000   -0.23396
1687.50000   -0.24923
1688.00000   -0.26148
1688.50000   -0.27060
1689.00000   -0.27647
1689.50000   -0.27899
1690.00000   -0.27812
1690.50000   -0.27384
1691.00000   -0.26618
1691.50000   -0.25525
1692.00000   -0.24119
1692.50000   -0.22422
1693.00000   -0.20464
1693.50000   -0.18280
1694.00000   -0.15910
1694.50000   -0.13403
1695.00000   -0.10809
1695.50000   -0.08183
1696.00000   -0.05580
1696.50000   -0.03055
1697.00000   -0.00663
1697.50000    0.01547
1698.00000    0.03528
1698.50000    0.05243
1699.00000    0.06659
1699.50000    0.07753
1700.00000    0.08513
1700.50000    0.08932
1701.00000    0.09013
1701.50000    0.08770
1702.00000    0.08220
1702.50000    0.07389
1703.00000    0.06309
1703.50000    0.05015
1704.00000    0.03545
1704.50000    0.01939
1705.00000    0.00238
1705.50000   -0.01519
1706.00000   -0.03292
1706.50000   -0.05045
1707.00000   -0.06741
1707.50000   -0.08351
1708.00000   -0.09843
1708.50000   -0.11193
1709.00000   -0.12377
1709.50000   -0.13374
1710.00000   -0.14166
1710.50000   -0.14739
1711.00000   -0.15079
1711.50000   -0.15176
1712.00000   -0.15021
1712.50000   -0.14608
1713.00000   -0.13935
1713.50000   -0.12999
1714.00000   -0.11803
1714.50000   -0.10350
1715.00000   -0.08648
1715.50000   -0.06707
1716.00000   -0.04538
1716.50000   -0.02159
1717.00000    0.00413
1717.50000    0.03157
1718.00000    0.06050
1718.50000    0.09067
1719.00000    0.12180
1719.50000    0.15360
1720.00000    0.18576
1720.50000    0.21796
1721.00000    0.24989
1721.50000    0.28120
1722.00000    0.31155
1722.50000    0.34060
1723.00000    0.36802
1723.50000    0.39347
1724.00000    0.41664
1724.50000    0.43721
1725.00000    0.45491
1725.50000    0.46950
1726.00000    0.48075
1726.50000    0.48851
1727.00000    0.49267
1727.50000    0.49316
1728.00000    0.49001
1728.50000    0.48330
1729.00000    0.47320
1729.50000    0.45994
1730.00000    0.44382
1730.50000    0.42522
1731.00000    0.40458
1731.50000    0.38238
1732.00000    0.35916
1732.50000    0.33545
1733.00000    0.31181
1733.50000    0.28879
1734.00000    0.26689
1734.50000    0.24659
1735.00000    0.22829
1735.50000    0.21231
1736.00000    0.19888
1736.50000    0.18814
1737.00000    0.18011
1737.50000    0.17470
1738.00000    0.17175
1738.50000    0.17096
1739.00000    0.17198
1739.50000    0.17437
1740.00000    0.17765
1740.50000    0.18131
1741.00000    0.18481
1741.50000    0.18765
1742.00000    0.18935
1742.50000    0.18946
1743.00000    0.18763
1743.50000    0.18355
1744.00000    0.17702
1744.50000    0.16794
1745.00000    0.15628
1745.50000    0.14214
1746.00000    0.12567
1746.50000    0.10712
1747.00000    0.08680
1747.50000    0.06508
1748.00000    0.04237
1748.50000    0.01908
1749.00000   -0.00436
1749.50000   -0.02753
1750.00000   -0.05005
1750.50000   -0.07155
1751.00000   -0.09175
1751.50000   -0.11041
1752.00000   -0.12733
1752.50000   -0.14239
1753.00000   -0.15554
1753.50000   -0.16677
1754.00000   -0.17612
1754.50000   -0.18366
1755.00000   -0.18950
1755.50000   -0.19378
1756.00000   -0.19663
1756.50000   -0.19819
1757.00000   -0.19860
1757.50000   -0.19799
1758.00000   -0.19646
1758.50000   -0.19411
1759.00000   -0.19102
1759.50000   -0.18726
1760.00000   -0.18287
1760.50000   -0.17790
1761.00000   -0.17239
1761.50000   -0.16638
1762.00000   -0.15993
1762.50000   -0.15310
1763.00000   -0.14595
1763.50000   -0.13857
1764.00000   -0.13107
1764.50000   -0.12354
1765.00000   -0.11611
1765.50000   -0.10890
1766.00000   -0.10202
1766.50000   -0.09557
1767.00000   -0.08965
1767.50000   -0.08432
1768.00000   -0.07961
1768.50000   -0.07552
1769.00000   -0.07203
1769.50000   -0.06906
1770.00000   -0.06651
1770.50000   -0.06426
1771.00000   -0.06213
1771.50000   -0.05997
1772.00000   -0.05758
1772.50000   -0.05477
1773.00000   -0.05137
1773.50000   -0.04721
1774.00000   -0.04215
1774.50000   -0.03608
1775.00000   -0.02894
1775.50000   -0.02068
1776.00000   -0.01133
1776.50000   -0.00093
1777.00000    0.01042
1777.50000    0.02258
1778.00000    0.03540
1778.50000    0.04868
1779.00000    0.06222
1779.50000    0.07580
1780.00000    0.08921
1780.50000    0.10225
1781.00000    0.11473
1781.50000    0.12648
1782.00000    0.13737
1782.50000    0.14728
1783.00000    0.15616
1783.50000    0.16396
1784.00000    0.17068
1784.50000    0.17633
1785.00000    0.18098
1785.50000    0.18468
1786.00000    0.18751
1786.50000    0.18956
1787.00000    0.19090
1787.50000    0.19162
1788.00000    0.19177
1788.50000    0.19137
1789.00000    0.19046
1789.50000    0.18899
1790.00000    0.18694
1790.50000    0.18422
1791.00000    0.18075
1791.50000    0.17639
1792.00000    0.17102
1792.50000    0.16450
1793.00000    0.15669
1793.50000    0.14747
1794.00000    0.13674
1794.50000    0.12440
1795.00000    0.11045
1795.50000    0.09487
1796.00000    0.07774
1796.50000    0.05917
1797.00000    0.03931
1797.50000    0.01838
1798.00000   -0.00335
1798.50000   -0.02560
1799.00000   -0.04804
1799.50000   -0.07033
1800.00000   -0.09212
1800.50000   -0.11306
1801.00000   -0.13284
1801.50000   -0.15115
1802.00000   -0.16772
1802.50000   -0.18236
1803.00000   -0.19487
1803.50000   -0.20515
1804.00000   -0.21314
1804.50000   -0.21882
1805.00000   -0.22222
1805.50000   -0.22343
1806.00000   -0.22255
1806.50000   -0.21972
1807.00000   -0.21508
1807.50000   -0.20881
1808.00000   -0.20104
1808.50000   -0.19194
1809.00000   -0.18165
1809.50000   -0.17027
1810.00000   -0.15793
1810.50000   -0.14470
1811.00000   -0.13065
1811.50000   -0.11585
1812.00000   -0.10035
1812.50000   -0.08421
1813.00000   -0.06748
1813.50000   -0.05023
1814.00000   -0.03256
1814.50000   -0.01457
1815.00000    0.00360
1815.50000    0.02181
1816.00000    0.03985
1816.50000    0.05754
1817.00000    0.07465
1817.50000    0.09095
1818.00000    0.10619
1818.50000    0.12012
1819.00000    0.13251
1819.50000    0.14314
1820.00000    0.15179
1820.50000    0.15829
1821.00000    0.16249
1821.50000    0.16429
1822.00000    0.16362
1822.50000    0.16046
1823.00000    0.15484
1823.50000    0.14681
1824.00000    0.13650
1824.50000    0.12407
1825.00000    0.10971
1825.50000    0.09366
1826.00000    0.07616
1826.50000    0.05753
1827.00000    0.03805
1827.50000    0.01805
1828.00000   -0.00214
1828.50000   -0.02219
1829.00000   -0.04178
1829.50000   -0.06058
1830.00000   -0.07829
1830.50000   -0.09462
1831.00000   -0.10931
1831.50000   -0.12210
1832.00000   -0.13279
1832.50000   -0.14118
1833.00000   -0.14711
1833.50000   -0.15044
1834.00000   -0.15106
1834.50000   -0.14888
1835.00000   -0.14386
1835.50000   -0.13596
1836.00000   -0.12516
1836.50000   -0.11149
1837.00000   -0.09497
1837.50000   -0.07566
1838.00000   -0.05364
1838.50000   -0.02902
1839.00000   -0.00193
1839.50000    0.02749
1840.00000    0.05904
1840.50000    0.09250
1841.00000    0.12762
1841.50000    0.16410
1842.00000    0.20162
1842.50000    0.23980
1843.00000    0.27825
1843.50000    0.31652
1844.00000    0.35414
1844.50000    0.39063
1845.00000    0.42547
1845.50000    0.45816
1846.00000    0.48818
1846.50000    0.51505
1847.00000    0.53829
1847.50000    0.55748
1848.00000    0.57225
1848.50000    0.58229
1849.00000    0.58734
1849.50000    0.58724
1850.00000    0.58193
1850.50000    0.57140
1851.00000    0.55577
1851.50000    0.53522
1852.00000    0.51005
1852.50000    0.48060
1853.00000    0.44732
1853.50000    0.41072
1854.00000    0.37134
1854.50000    0.32979
1855.00000    0.28668
1855.50000    0.24266
1856.00000    0.19836
1856.50000    0.15439
1857.00000    0.11137
1857.50000    0.06983
1858.00000    0.03029
1858.50000   -0.00681
1859.00000   -0.04109
1859.50000   -0.07222
1860.00000   -0.09997
1860.50000   -0.12417
1861.00000   -0.14471
1861.50000   -0.16157
1862.00000   -0.17477
1862.50000   -0.18439
1863.00000   -0.19058
1863.50000   -0.19351
1864.00000   -0.19339
1864.50000   -0.19046
1865.00000   -0.18496
1865.50000   -0.17718
1866.00000   -0.16737
1866.50000   -0.15580
1867.00000   -0.14274
1867.50000   -0.12845
1868.00000   -0.11316
1868.50000   -0.09712
1869.00000   -0.08055
1869.50000   -0.06367
1870.00000   -0.04669
1870.50000   -0.02982
1871.00000   -0.01327
1871.50000    0.00276
1872.00000    0.01804
1872.50000    0.03239
1873.00000    0.04557
1873.50000    0.05738
1874.00000    0.06762
1874.50000    0.07610
1875.00000    0.08263
1875.50000    0.08708
1876.00000    0.08933
1876.50000    0.08930
1877.00000    0.08697
1877.50000    0.08236
1878.00000    0.07557
1878.50000    0.06672
1879.00000    0.05604
1879.50000    0.04378
1880.00000    0.03026
1880.50000    0.01585
1881.00000    0.00094
1881.50000   -0.01405
1882.00000   -0.02867
1882.50000   -0.04249
1883.00000   -0.05508
1883.50000   -0.06606
1884.00000   -0.07506
1884.50000   -0.08179
1885.00000   -0.08600
1885.50000   -0.08751
1886.00000   -0.08622
1886.50000   -0.08210
1887.00000   -0.07519
1887.50000   -0.06561
1888.00000   -0.05354
1888.50000   -0.03924
1889.00000   -0.02300
1889.50000   -0.00516
1890.00000    0.01388
1890.50000    0.03372
1891.00000    0.05394
1891.50000    0.07409
1892.00000    0.09373
1892.50000    0.11246
1893.00000    0.12986
1893.50000    0.14555
1894.00000    0.15918
1894.50000    0.17047
1895.00000    0.17914
1895.50000    0.18501
1896.00000    0.18793
1896.50000    0.18783
1897.00000    0.18470
1897.50000    0.17861
1898.00000    0.16969
1898.50000    0.15814
1899.00000    0.14422
1899.50000    0.12827
1900.00000    0.11064
1900.50000    0.09175
1901.00000    0.07205
1901.50000    0.05198
1902.00000    0.03200
1902.50000    0.01254
1903.00000   -0.00600
1903.50000   -0.02324
1904.00000   -0.03889
1904.50000   -0.05270
1905.00000   -0.06449
1905.50000   -0.07416
1906.00000   -0.08169
1906.50000   -0.08712
1907.00000   -0.09054
1907.50000   -0.09213
1908.00000   -0.09206
1908.50000   -0.09058
1909.00000   -0.08793
1909.50000   -0.08434
1910.00000   -0.08006
1910.50000   -0.07531
1911.00000   -0.07027
1911.50000   -0.06512
1912.00000   -0.05996
1912.50000   -0.05490
1913.00000   -0.05001
1913.50000   -0.04531
1914.00000   -0.04084
1914.50000   -0.03659
1915.00000   -0.03257
1915.50000   -0.02877
1916.00000   -0.02521
1916.50000   -0.02187
1917.00000   -0.01879
1917.50000   -0.01599
1918.00000   -0.01348
1918.50000   -0.01131
1919.00000   -0.00950
1919.50000   -0.00806
1920.00000   -0.00703
1920.50000   -0.00638
1921.00000   -0.00609
1921.50000   -0.00614
1922.00000   -0.00647
1922.50000   -0.00700
1923.00000   -0.00765
1923.50000   -0.00834
1924.00000   -0.00897
1924.50000   -0.00946
1925.00000   -0.00974
1925.50000   -0.00973
1926.00000   -0.00941
1926.50000   -0.00875
1927.00000   -0.00775
1927.50000   -0.00643
1928.00000   -0.00482
1928.50000   -0.00299
1929.00000   -0.00097
1929.50000    0.00116
1930.00000    0.00335
1930.50000    0.00557
1931.00000    0.00777
1931.50000    0.00994
1932.00000    0.01208
1932.50000    0.01418
1933.00000    0.01628
1933.50000    0.01838
1934.00000    0.02051
1934.50000    0.02267
1935.00000    0.02487
1935.50000    0.02709
1936.00000    0.02929
1936.50000    0.03141
1937.00000    0.03339
1937.50000    0.03512
1938.00000    0.03652
1938.50000    0.03749
1939.00000    0.03791
1939.50000    0.03771
1940.00000    0.03684
1940.50000    0.03525
1941.00000    0.03295
1941.50000    0.02998
1942.00000    0.02642
1942.50000    0.02240
1943.00000    0.01805
1943.50000    0.01356
1944.00000    0.00912
1944.50000    0.00493
1945.00000    0.00116
1945.50000   -0.00199
1946.00000   -0.00441
1946.50000   -0.00597
1947.00000   -0.00663
1947.50000   -0.00637
1948.00000   -0.00522
1948.50000   -0.00328
1949.00000   -0.00065
1949.50000    0.00252
1950.00000    0.00605
1950.50000    0.00979
1951.00000    0.01357
1951.50000    0.01722
1952.00000    0.02063
1952.50000    0.02369
1953.00000    0.02634
1953.50000    0.02854
1954.00000    0.03030
1954.50000    0.03165
1955.00000    0.03263
1955.50000    0.03330
1956.00000    0.03372
1956.50000    0.03396
1957.00000    0.03405
1957.50000    0.03402
1958.00000    0.03385
1958.50000    0.03352
1959.00000    0.03297
1959.50000    0.03210
1960.00000    0.03081
1960.50000    0.02898
1961.00000    0.02649
1961.50000    0.02322
1962.00000    0.01907
1962.50000    0.01398
1963.00000    0.00790
1963.50000    0.00084
1964.00000   -0.00716
1964.50000   -0.01599
1965.00000   -0.02553
1965.50000   -0.03560
1966.00000   -0.04600
1966.50000   -0.05650
1967.00000   -0.06685
1967.50000   -0.07682
1968.00000   -0.08618
1968.50000   -0.09472
1969.00000   -0.10228
1969.50000   -0.10870
1970.00000   -0.11390
1970.50000   -0.11782
1971.00000   -0.12044
1971.50000   -0.12179
1972.00000   -0.12193
1972.50000   -0.12094
1973.00000   -0.11892
1973.50000   -0.11598
1974.00000   -0.11220
1974.50000   -0.10767
1975.00000   -0.10247
1975.50000   -0.09662
1976.00000   -0.09014
1976.50000   -0.08299
1977.00000   -0.07512
1977.50000   -0.06645
1978.00000   -0.05686
1978.50000   -0.04622
1979.00000   -0.03440
1979.50000   -0.02127
1980.00000   -0.00670
1980.50000    0.00941
1981.00000    0.02713
1981.50000    0.04650
1982.00000    0.06753
1982.50000    0.09017
1983.00000    0.11433
1983.50000    0.13989
1984.00000    0.16669
1984.50000    0.19455
1985.00000    0.22324
1985.50000    0.25254
1986.00000    0.28224
1986.50000    0.31210
1987.00000    0.34192
1987.50000    0.37149
1988.00000    0.40066
1988.50000    0.42926
1989.00000    0.45717
1989.50000    0.48429
1990.00000    0.51051
1990.50000    0.53576
1991.00000    0.55994
1991.50000    0.58297
1992.00000    0.60474
1992.50000    0.62513
1993.00000    0.64401
1993.50000    0.66122
1994.00000    0.67659
1994.50000    0.68994
1995.00000    0.70108
1995.50000    0.70984
1996.00000    0.71606
1996.50000    0.71962
1997.00000    0.72041
1997.50000    0.71840
1998.00000    0.71362
1998.50000    0.70615
1999.00000    0.69614
1999.50000    0.68381
2000.00000    0.66943
2000.50000    0.65333
2001.00000    0.63589
2001.50000    0.61749
2002.00000    0.59854
2002.50000    0.57944
2003.00000    0.56055
2003.50000    0.54220
2004.00000    0.52467
2004.50000    0.50815
2005.00000    0.49277
2005.50000    0.47857
2006.00000    0.46554
2006.50000    0.45354
2007.00000    0.44242
2007.50000    0.43191
2008.00000    0.42175
2008.50000    0.41163
2009.00000    0.40121
2009.50000    0.39018
2010.00000    0.37823
2010.50000    0.36510
2011.00000    0.35056
2011.50000    0.33445
2012.00000    0.31668
2012.50000    0.29719
2013.00000    0.27603
2013.50000    0.25330
2014.00000    0.22917
2014.50000    0.20386
2015.00000    0.17765
2015.50000    0.15087
2016.00000    0.12387
2016.50000    0.09705
2017.00000    0.07079
2017.50000    0.04551
2018.00000    0.02158
2018.50000   -0.00061
2019.00000   -0.02074
2019.50000   -0.03853
2020.00000   -0.05372
2020.50000   -0.06617
2021.00000   -0.07578
2021.50000   -0.08254
2022.00000   -0.08652
2022.50000   -0.08788
2023.00000   -0.08687
2023.50000   -0.08379
2024.00000   -0.07905
2024.50000   -0.07309
2025.00000   -0.06639
2025.50000   -0.05949
2026.00000   -0.05290
2026.50000   -0.04713
2027.00000   -0.04267
2027.50000   -0.03995
2028.00000   -0.03934
2028.50000   -0.04111
2029.00000   -0.04546
2029.50000   -0.05245
2030.00000   -0.06207
2030.50000   -0.07419
2031.00000   -0.08857
2031.50000   -0.10488
2032.00000   -0.12270
2032.50000   -0.14157
2033.00000   -0.16095
2033.50000   -0.18027
2034.00000   -0.19896
2034.50000   -0.21644
2035.00000   -0.23214
2035.50000   -0.24554
2036.00000   -0.25616
2036.50000   -0.26356
2037.00000   -0.26738
2037.50000   -0.26731
2038.00000   -0.26310
2038.50000   -0.25460
2039.00000   -0.24169
2039.50000   -0.22435
2040.00000   -0.20260
2040.50000   -0.17654
2041.00000   -0.14632
2041.50000   -0.11216
2042.00000   -0.07432
2042.50000   -0.03313
2043.00000    0.01103
2043.50000    0.05772
2044.00000    0.10646
2044.50000    0.15672
2045.00000    0.20794
2045.50000    0.25949
2046.00000    0.31073
2046.50000    0.36101
2047.00000    0.40964
2047.50000    0.45593
2048.00000    0.49922
2048.50000    0.53886
2049.00000    0.57425
2049.50000    0.60482
2050.00000    0.63009
2050.50000    0.64965
2051.00000    0.66319
2051.50000    0.67049
2052.00000    0.67146
2052.50000    0.66611
2053.00000    0.65459
2053.50000    0.63716
2054.00000    0.61421
2054.50000    0.58624
2055.00000    0.55384
2055.50000    0.51772
2056.00000    0.47864
2056.50000    0.43744
2057.00000    0.39500
2057.50000    0.35221
2058.00000    0.30997
2058.50000    0.26915
2059.00000    0.23057
2059.50000    0.19500
2060.00000    0.16312
2060.50000    0.13552
2061.00000    0.11265
2061.50000    0.09487
2062.00000    0.08241
2062.50000    0.07535
2063.00000    0.07366
2063.50000    0.07719
2064.00000    0.08564
2064.50000    0.09866
2065.00000    0.11577
2065.50000    0.13643
2066.00000    0.16004
2066.50000    0.18598
2067.00000    0.21359
2067.50000    0.24222
2068.00000    0.27123
2068.50000    0.30002
2069.00000    0.32804
2069.50000    0.35477
2070.00000    0.37978
2070.50000    0.40271
2071.00000    0.42326
2071.50000    0.44121
2072.00000    0.45638
2072.50000    0.46869
2073.00000    0.47809
2073.50000    0.48456
2074.00000    0.48814
2074.50000    0.48886
2075.00000    0.48678
2075.50000    0.48193
2076.00000    0.47436
2076.50000    0.46408
2077.00000    0.45109
2077.50000    0.43536
2078.00000    0.41687
2078.50000    0.39556
2079.00000    0.37137
2079.50000    0.34429
2080.00000    0.31429
2080.50000    0.28141
2081.00000    0.24575
2081.50000    0.20746
2082.00000    0.16681
2082.50000    0.12412
2083.00000    0.07986
2083.50000    0.03457
2084.00000   -0.01111
2084.50000   -0.05644
2085.00000   -0.10063
2085.50000   -0.14283
2086.00000   -0.18218
2086.50000   -0.21783
2087.00000   -0.24897
2087.50000   -0.27487
2088.00000   -0.29490
2088.50000   -0.30858
2089.00000   -0.31558
2089.50000   -0.31572
2090.00000   -0.30906
2090.50000   -0.29579
2091.00000   -0.27633
2091.50000   -0.25124
2092.00000   -0.22125
2092.50000   -0.18720
2093.00000   -0.15003
2093.50000   -0.11075
2094.00000   -0.07038
2094.50000   -0.02993
2095.00000    0.00962
2095.50000    0.04739
2096.00000    0.08257
2096.50000    0.11449
2097.00000    0.14261
2097.50000    0.16650
2098.00000    0.18592
2098.50000    0.20073
2099.00000    0.21092
2099.50000    0.21659
2100.00000    0.21796
2100.50000    0.21531
2101.00000    0.20896
2101.50000    0.19932
2102.00000    0.18679
2102.50000    0.17179
2103.00000    0.15477
2103.50000    0.13613
2104.00000    0.11630
2104.50000    0.09564
2105.00000    0.07455
2105.50000    0.05334
2106.00000    0.03233
2106.50000    0.01181
2107.00000   -0.00798
2107.50000   -0.02683
2108.00000   -0.04458
2108.50000   -0.06110
2109.00000   -0.07632
2109.50000   -0.09023
2110.00000   -0.10287
2110.50000   -0.11432
2111.00000   -0.12472
2111.50000   -0.13426
2112.00000   -0.14316
2112.50000   -0.15167
2113.00000   -0.16004
2113.50000   -0.16850
2114.00000   -0.17727
2114.50000   -0.18650
2115.00000   -0.19628
2115.50000   -0.20661
2116.00000   -0.21741
2116.50000   -0.22848
2117.00000   -0.23952
2117.50000   -0.25013
2118.00000   -0.25982
2118.50000   -0.26803
2119.00000   -0.27416
2119.50000   -0.27757
2120.00000   -0.27766
2120.50000   -0.27383
2121.00000   -0.26561
2121.50000   -0.25259
2122.00000   -0.23454
2122.50000   -0.21134
2123.00000   -0.18309
2123.50000   -0.15004
2124.00000   -0.11262
2124.50000   -0.07146
2125.00000   -0.02732
2125.50000    0.01890
2126.00000    0.06619
2126.50000    0.11350
2127.00000    0.15973
2127.50000    0.20381
2128.00000    0.24472
2128.50000    0.28154
2129.00000    0.31348
2129.50000    0.33988
2130.00000    0.36028
2130.50000    0.37441
2131.00000    0.38217
2131.50000    0.38370
2132.00000    0.37928
2132.50000    0.36939
2133.00000    0.35463
2133.50000    0.33573
2134.00000    0.31353
2134.50000    0.28890
2135.00000    0.26276
2135.50000    0.23603
2136.00000    0.20959
2136.50000    0.18429
2137.00000    0.16088
2137.50000    0.14007
2138.00000    0.12244
2138.50000    0.10848
2139.00000    0.09858
2139.50000    0.09303
2140.00000    0.09202
2140.50000    0.09564
2141.00000    0.10391
2141.50000    0.11676
2142.00000    0.13404
2142.50000    0.15555
2143.00000    0.18102
2143.50000    0.21014
2144.00000    0.24254
2144.50000    0.27780
2145.00000    0.31545
2145.50000    0.35499
2146.00000    0.39587
2146.50000    0.43751
2147.00000    0.47931
2147.50000    0.52062
2148.00000    0.56080
2148.50000    0.59921
2149.00000    0.63519
2149.50000    0.66812
2150.00000    0.69742
2150.50000    0.72252
2151.00000    0.74295
2151.50000    0.75829
2152.00000    0.76819
2152.50000    0.77242
2153.00000    0.77084
2153.50000    0.76339
2154.00000    0.75013
2154.50000    0.73123
2155.00000    0.70696
2155.50000    0.67767
2156.00000    0.64380
2156.50000    0.60589
2157.00000    0.56452
2157.50000    0.52036
2158.00000    0.47408
2158.50000    0.42642
2159.00000    0.37813
2159.50000    0.32995
2160.00000    0.28264
2160.50000    0.23691
2161.00000    0.19346
2161.50000    0.15295
2162.00000    0.11596
2162.50000    0.08301
2163.00000    0.05456
2163.50000    0.03095
2164.00000    0.01246
2164.50000   -0.00079
2165.00000   -0.00873
2165.50000   -0.01145
2166.00000   -0.00914
2166.50000   -0.00211
2167.00000    0.00924
2167.50000    0.02437
2168.00000    0.04269
2168.50000    0.06350
2169.00000    0.08607
2169.50000    0.10960
2170.00000    0.13331
2170.50000    0.15637
2171.00000    0.17804
2171.50000    0.19756
2172.00000    0.21430
2172.50000    0.22766
2173.00000    0.23718
2173.50000    0.24248
2174.00000    0.24332
2174.50000    0.23956
2175.00000    0.23119
2175.50000    0.21830
2176.00000    0.20111
2176.50000    0.17990
2177.00000    0.15505
2177.50000    0.12700
2178.00000    0.09622
2178.50000    0.06323
2179.00000    0.02855
2179.50000   -0.00729
2180.00000   -0.04377
2180.50000   -0.08041
2181.00000   -0.11675
2181.50000   -0.15235
2182.00000   -0.18686
2182.50000   -0.21993
2183.00000   -0.25127
2183.50000   -0.28064
2184.00000   -0.30783
2184.50000   -0.33268
2185.00000   -0.35506
2185.50000   -0.37486
2186.00000   -0.39201
2186.50000   -0.40645
2187.00000   -0.41814
2187.50000   -0.42707
2188.00000   -0.43320
2188.50000   -0.43654
2189.00000   -0.43706
2189.50000   -0.43477
2190.00000   -0.42966
2190.50000   -0.42174
2191.00000   -0.41101
2191.50000   -0.39749
2192.00000   -0.38122
2192.50000   -0.36226
2193.00000   -0.34069
2193.50000   -0.31664
2194.00000   -0.29026
2194.50000   -0.26176
2195.00000   -0.23139
2195.50000   -0.19947
2196.00000   -0.16635
2196.50000   -0.13245
2197.00000   -0.09820
2197.50000   -0.06409
2198.00000   -0.03064
2198.50000    0.00165
2199.00000    0.03228
2199.50000    0.06075
2200.00000    0.08663
2200.50000    0.10954
2201.00000    0.12917
2201.50000    0.14529
2202.00000    0.15777
2202.50000    0.16659
2203.00000    0.17182
2203.50000    0.17362
2204.00000    0.17227
2204.50000    0.16811
2205.00000    0.16154
2205.50000    0.15302
2206.00000    0.14303
2206.50000    0.13207
2207.00000    0.12063
2207.50000    0.10917
2208.00000    0.09809
2208.50000    0.08778
2209.00000    0.07853
2209.50000    0.07058
2210.00000    0.06409
2210.50000    0.05914
2211.00000    0.05578
2211.50000    0.05397
2212.00000    0.05364
2212.50000    0.05465
2213.00000    0.05685
2213.50000    0.06007
2214.00000    0.06410
2214.50000    0.06873
2215.00000    0.07373
2215.50000    0.07889
2216.00000    0.08398
2216.50000    0.08877
2217.00000    0.09302
2217.50000    0.09652
2218.00000    0.09903
2218.50000    0.10034
2219.00000    0.10023
2219.50000    0.09852
2220.00000    0.09505
2220.50000    0.08967
2221.00000    0.08230
2221.50000    0.07290
2222.00000    0.06149
2222.50000    0.04819
2223.00000    0.03316
2223.50000    0.01666
2224.00000   -0.00096
2224.50000   -0.01930
2225.00000   -0.03786
2225.50000   -0.05609
2226.00000   -0.07340
2226.50000   -0.08918
2227.00000   -0.10279
2227.50000   -0.11363
2228.00000   -0.12113
2228.50000   -0.12480
2229.00000   -0.12421
2229.50000   -0.11905
2230.00000   -0.10913
2230.50000   -0.09438
2231.00000   -0.07486
2231.50000   -0.05079
2232.00000   -0.02251
2232.50000    0.00953
2233.00000    0.04475
2233.50000    0.08250
2234.00000    0.12204
2234.50000    0.16262
2235.00000    0.20344
2235.50000    0.24372
2236.00000    0.28271
2236.50000    0.31971
2237.00000    0.35411
2237.50000    0.38537
2238.00000    0.41307
2238.50000    0.43688
2239.00000    0.45661
2239.50000    0.47215
2240.00000    0.48351
2240.50000    0.49082
2241.00000    0.49425
2241.50000    0.49407
2242.00000    0.49060
2242.50000    0.48418
2243.00000    0.47521
2243.50000    0.46405
2244.00000    0.45109
2244.50000    0.43668
2245.00000    0.42115
2245.50000    0.40479
2246.00000    0.38785
2246.50000    0.37056
2247.00000    0.35308
2247.50000    0.33556
2248.00000    0.31807
2248.50000    0.30070
2249.00000    0.28348
2249.50000    0.26641
2250.00000    0.24949
2250.50000    0.23268
2251.00000    0.21596
2251.50000    0.19926
2252.00000    0.18254
2252.50000    0.16571
2253.00000    0.14873
2253.50000    0.13151
2254.00000    0.11399
2254.50000    0.09612
2255.00000    0.07785
2255.50000    0.05914
2256.00000    0.03999
2256.50000    0.02039
2257.00000    0.00039
2257.50000   -0.01993
2258.00000   -0.04048
2258.50000   -0.06111
2259.00000   -0.08165
2259.50000   -0.10189
2260.00000   -0.12158
2260.50000   -0.14046
2261.00000   -0.15825
2261.50000   -0.17467
2262.00000   -0.18944
2262.50000   -0.20228
2263.00000   -0.21295
2263.50000   -0.22125
2264.00000   -0.22700
2264.50000   -0.23010
2265.00000   -0.23048
2265.50000   -0.22816
2266.00000   -0.22320
2266.50000   -0.21572
2267.00000   -0.20590
2267.50000   -0.19398
2268.00000   -0.18022
2268.50000   -0.16492
2269.00000   -0.14841
2269.50000   -0.13103
2270.00000   -0.11309
2270.50000   -0.09494
2271.00000   -0.07686
2271.50000   -0.05912
2272.00000   -0.04198
2272.50000   -0.02561
2273.00000   -0.01016
2273.50000    0.00425
2274.00000    0.01758
2274.50000    0.02981
2275.00000    0.04096
2275.50000    0.05109
2276.00000    0.06029
2276.50000    0.06867
2277.00000    0.07632
2277.50000    0.08338
2278.00000    0.08994
2278.50000    0.09608
2279.00000    0.10186
2279.50000    0.10730
2280.00000    0.11240
2280.50000    0.11707
2281.00000    0.12123
2281.50000    0.12472
2282.00000    0.12735
2282.50000    0.12890
2283.00000    0.12912
2283.50000    0.12776
2284.00000    0.12456
2284.50000    0.11926
2285.00000    0.11166
2285.50000    0.10159
2286.00000    0.08891
2286.50000    0.07359
2287.00000    0.05564
2287.50000    0.03518
2288.00000    0.01240
2288.50000   -0.01243
2289.00000   -0.03895
2289.50000   -0.06672
2290.00000   -0.09527
2290.50000   -0.12406
2291.00000   -0.15251
2291.50000   -0.18003
2292.00000   -0.20603
2292.50000   -0.22995
2293.00000   -0.25124
2293.50000   -0.26940
2294.00000   -0.28399
2294.50000   -0.29462
2295.00000   -0.30100
2295.50000   -0.30289
2296.00000   -0.30013
2296.50000   -0.29265
2297.00000   -0.28044
2297.50000   -0.26358
2298.00000   -0.24220
2298.50000   -0.21651
2299.00000   -0.18675
2299.50000   -0.15326
2300.00000   -0.11638
2300.50000   -0.07651
2301.00000   -0.03411
2301.50000    0.01037
2302.00000    0.05642
2302.50000    0.10352
2303.00000    0.15115
2303.50000    0.19875
2304.00000    0.24578
2304.50000    0.29169
2305.00000    0.33597
2305.50000    0.37811
2306.00000    0.41762
2306.50000    0.45407
2307.00000    0.48707
2307.50000    0.51629
2308.00000    0.54144
2308.50000    0.56231
2309.00000    0.57875
2309.50000    0.59070
2310.00000    0.59816
2310.50000    0.60120
2311.00000    0.59995
2311.50000    0.59463
2312.00000    0.58549
2312.50000    0.57287
2313.00000    0.55712
2313.50000    0.53863
2314.00000    0.51784
2314.50000    0.49519
2315.00000    0.47112
2315.50000    0.44607
2316.00000    0.42046
2316.50000    0.39470
2317.00000    0.36914
2317.50000    0.34411
2318.00000    0.31989
2318.50000    0.29670
2319.00000    0.27470
2319.50000    0.25402
2320.00000    0.23472
2320.50000    0.21683
2321.00000    0.20032
2321.50000    0.18514
2322.00000    0.17123
2322.50000    0.15848
2323.00000    0.14683
2323.50000    0.13617
2324.00000    0.12644
2324.50000    0.11758
2325.00000    0.10956
2325.50000    0.10237
2326.00000    0.09604
2326.50000    0.09060
2327.00000    0.08611
2327.50000    0.08264
2328.00000    0.08026
2328.50000    0.07904
2329.00000    0.07904
2329.50000    0.08030
2330.00000    0.08282
2330.50000    0.08660
2331.00000    0.09159
2331.50000    0.09772
2332.00000    0.10489
2332.50000    0.11296
2333.00000    0.12178
2333.50000    0.13119
2334.00000    0.14100
2334.50000    0.15104
2335.00000    0.16112
2335.50000    0.17106
2336.00000    0.18069
2336.50000    0.18985
2337.00000    0.19837
2337.50000    0.20610
2338.00000    0.21290
2338.50000    0.21862
2339.00000    0.22311
2339.50000    0.22623
2340.00000    0.22782
2340.50000    0.22773
2341.00000    0.22583
2341.50000    0.22196
2342.00000    0.21602
2342.50000    0.20789
2343.00000    0.19749
2343.50000    0.18480
2344.00000    0.16981
2344.50000    0.15259
2345.00000    0.13324
2345.50000    0.11193
2346.00000    0.08887
2346.50000    0.06433
2347.00000    0.03861
2347.50000    0.01204
2348.00000   -0.01500
2348.50000   -0.04217
2349.00000   -0.06910
2349.50000   -0.09547
2350.00000   -0.12096
2350.50000   -0.14533
2351.00000   -0.16838
2351.50000   -0.18994
2352.00000   -0.20994
2352.50000   -0.22834
2353.00000   -0.24516
2353.50000   -0.26045
2354.00000   -0.27432
2354.50000   -0.28689
2355.00000   -0.29827
2355.50000   -0.30860
2356.00000   -0.31799
2356.50000   -0.32651
2357.00000   -0.33422
2357.50000   -0.34114
2358.00000   -0.34724
2358.50000   -0.35244
2359.00000   -0.35662
2359.50000   -0.35965
2360.00000   -0.36135
2360.50000   -0.36151
2361.00000   -0.35993
2361.50000   -0.35642
2362.00000   -0.35077
2362.50000   -0.34282
2363.00000   -0.33243
2363.50000   -0.31953
2364.00000   -0.30406
2364.50000   -0.28604
2365.00000   -0.26554
2365.50000   -0.24271
2366.00000   -0.21772
2366.50000   -0.19083
2367.00000   -0.16231
2367.50000   -0.13249
2368.00000   -0.10170
2368.50000   -0.07031
2369.00000   -0.03865
2369.50000   -0.00705
2370.00000    0.02419
2370.50000    0.05484
2371.00000    0.08470
2371.50000    0.11365
2372.00000    0.14165
2372.50000    0.16870
2373.00000    0.19490
2373.50000    0.22038
2374.00000    0.24532
2374.50000    0.26996
2375.00000    0.29451
2375.50000    0.31919
2376.00000    0.34420
2376.50000    0.36967
2377.00000    0.39568
2377.50000    0.42221
2378.00000    0.44919
2378.50000    0.47640
2379.00000    0.50358
2379.50000    0.53036
2380.00000    0.55629
2380.50000    0.58091
2381.00000    0.60368
2381.50000    0.62409
2382.00000    0.64164
2382.50000    0.65589
2383.00000    0.66647
2383.50000    0.67308
2384.00000    0.67556
2384.50000    0.67384
2385.00000    0.66798
2385.50000    0.65814
2386.00000    0.64458
2386.50000    0.62764
2387.00000    0.60772
2387.50000    0.58527
2388.00000    0.56071
2388.50000    0.53447
2389.00000    0.50696
2389.50000    0.47849
2390.00000    0.44934
2390.50000    0.41971
2391.00000    0.38971
2391.50000    0.35942
2392.00000    0.32883
2392.50000    0.29793
2393.00000    0.26669
2393.50000    0.23509
2394.00000    0.20312
2394.50000    0.17085
2395.00000    0.13839
2395.50000    0.10596
2396.00000    0.07383
2396.50000    0.04235
2397.00000    0.01194
2397.50000   -0.01693
2398.00000   -0.04376
2398.50000   -0.06804
2399.00000   -0.08930
2399.50000   -0.10709
2400.00000   -0.12106
2400.50000   -0.13093
2401.00000   -0.13656
2401.50000   -0.13790
2402.00000   -0.13506
2402.50000   -0.12824
2403.00000   -0.11777
2403.50000   -0.10409
2404.00000   -0.08770
2404.50000   -0.06917
2405.00000   -0.04908
2405.50000   -0.02804
2406.00000   -0.00662
2406.50000    0.01464
2407.00000    0.03528
2407.50000    0.05489
2408.00000    0.07315
2408.50000    0.08983
2409.00000    0.10476
2409.50000    0.11788
2410.00000    0.12915
2410.50000    0.13863
2411.00000    0.14636
2411.50000    0.15246
2412.00000    0.15700
2412.50000    0.16010
2413.00000    0.16182
2413.50000    0.16223
2414.00000    0.16137
2414.50000    0.15924
2415.00000    0.15585
2415.50000    0.15116
2416.00000    0.14514
2416.50000    0.13775
2417.00000    0.12898
2417.50000    0.11879
2418.00000    0.10721
2418.50000    0.09425
2419.00000    0.07998
2419.50000    0.06448
2420.00000    0.04786
2420.50000    0.03027
2421.00000    0.01188
2421.50000   -0.00715
2422.00000   -0.02659
2422.50000   -0.04625
2423.00000   -0.06591
2423.50000   -0.08534
2424.00000   -0.10432
2424.50000   -0.12262
2425.00000   -0.14001
2425.50000   -0.15627
2426.00000   -0.17115
2426.50000   -0.18443
2427.00000   -0.19587
2427.50000   -0.20522
2428.00000   -0.21226
2428.50000   -0.21675
2429.00000   -0.21849
2429.50000   -0.21727
2430.00000   -0.21292
2430.50000   -0.20533
2431.00000   -0.19441
2431.50000   -0.18014
2432.00000   -0.16257
2432.50000   -0.14182
2433.00000   -0.11810
2433.50000   -0.09169
2434.00000   -0.06296
2434.50000   -0.03234
2435.00000   -0.00035
2435.50000    0.03245
2436.00000    0.06547
2436.50000    0.09806
2437.00000    0.12960
2437.50000    0.15947
2438.00000    0.18710
2438.50000    0.21196
2439.00000    0.23361
2439.50000    0.25168
2440.00000    0.26591
2440.50000    0.27617
2441.00000    0.28242
2441.50000    0.28475
2442.00000    0.28334
2442.50000    0.27848
2443.00000    0.27056
2443.50000    0.26002
2444.00000    0.24737
2444.50000    0.23312
2445.00000    0.21782
2445.50000    0.20197
2446.00000    0.18605
2446.50000    0.17047
2447.00000    0.15558
2447.50000    0.14160
2448.00000    0.12869
2448.50000    0.11688
2449.00000    0.10608
2449.50000    0.09613
2450.00000    0.08674
2450.50000    0.07758
2451.00000    0.06825
2451.50000    0.05830
2452.00000    0.04731
2452.50000    0.03484
2453.00000    0.02054
2453.50000    0.00409
2454.00000   -0.01470
2454.50000   -0.03592
2455.00000   -0.05953
2455.50000   -0.08537
2456.00000   -0.11314
2456.50000   -0.14239
2457.00000   -0.17260
2457.50000   -0.20315
2458.00000   -0.23333
2458.50000   -0.26244
2459.00000   -0.28974
2459.50000   -0.31454
2460.00000   -0.33622
2460.50000   -0.35424
2461.00000   -0.36816
2461.50000   -0.37772
2462.00000   -0.38276
2462.50000   -0.38328
2463.00000   -0.37943
2463.50000   -0.37148
2464.00000   -0.35984
2464.50000   -0.34496
2465.00000   -0.32740
2465.50000   -0.30773
2466.00000   -0.28654
2466.50000   -0.26437
2467.00000   -0.24174
2467.50000   -0.21910
2468.00000   -0.19679
2468.50000   -0.17509
2469.00000   -0.15417
2469.50000   -0.13411
2470.00000   -0.11490
2470.50000   -0.09647
2471.00000   -0.07869
2471.50000   -0.06140
2472.00000   -0.04442
2472.50000   -0.02756
2473.00000   -0.01067
2473.50000    0.00639
2474.00000    0.02370
2474.50000    0.04129
2475.00000    0.05913
2475.50000    0.07714
2476.00000    0.09518
2476.50000    0.11306
2477.00000    0.13056
2477.50000    0.14740
2478.00000    0.16330
2478.50000    0.17798
2479.00000    0.19114
2479.50000    0.20252
2480.00000    0.21186
2480.50000    0.21897
2481.00000    0.22369
2481.50000    0.22591
2482.00000    0.22561
2482.50000    0.22282
2483.00000    0.21763
2483.50000    0.21023
2484.00000    0.20087
2484.50000    0.18986
2485.00000    0.17755
2485.50000    0.16438
2486.00000    0.15079
2486.50000    0.13724
2487.00000    0.12421
2487.50000    0.11215
2488.00000    0.10148
2488.50000    0.09256
2489.00000    0.08569
2489.50000    0.08110
2490.00000    0.07890
2490.50000    0.07914
2491.00000    0.08173
2491.50000    0.08652
2492.00000    0.09324
2492.50000    0.10156
2493.00000    0.11108
2493.50000    0.12134
2494.00000    0.13187
2494.50000    0.14220
2495.00000    0.15184
2495.50000    0.16035
2496.00000    0.16735
2496.50000    0.17251
2497.00000    0.17556
2497.50000    0.17632
2498.00000    0.17469
2498.50000    0.17065
2499.00000    0.16425
2499.50000    0.15561
2500.00000    0.14491
2500.50000    0.13239
2501.00000    0.11832
2501.50000    0.10299
2502.00000    0.08672
2502.50000    0.06984
2503.00000    0.05267
2503.50000    0.03553
2504.00000    0.01872
2504.50000    0.00254
2505.00000   -0.01277
2505.50000   -0.02697
2506.00000   -0.03986
2506.50000   -0.05128
2507.00000   -0.06111
2507.50000   -0.06925
2508.00000   -0.07569
2508.50000   -0.08042
2509.00000   -0.08350
2509.50000   -0.08505
2510.00000   -0.08520
2510.50000   -0.08417
2511.00000   -0.08218
2511.50000   -0.07951
2512.00000   -0.07645
2512.50000   -0.07330
2513.00000   -0.07038
2513.50000   -0.06799
2514.00000   -0.06644
2514.50000   -0.06598
2515.00000   -0.06684
2515.50000   -0.06919
2516.00000   -0.07316
2516.50000   -0.07882
2517.00000   -0.08616
2517.50000   -0.09512
2518.00000   -0.10557
2518.50000   -0.11732
2519.00000   -0.13014
2519.50000   -0.14373
2520.00000   -0.15776
2520.50000   -0.17188
2521.00000   -0.18569
2521.50000   -0.19881
2522.00000   -0.21087
2522.50000   -0.22147
2523.00000   -0.23028
2523.50000   -0.23699
2524.00000   -0.24132
2524.50000   -0.24307
2525.00000   -0.24208
2525.50000   -0.23827
2526.00000   -0.23161
2526.50000   -0.22217
2527.00000   -0.21007
2527.50000   -0.19551
2528.00000   -0.17874
2528.50000   -0.16006
2529.00000   -0.13983
2529.50000   -0.11844
2530.00000   -0.09627
2530.50000   -0.07373
2531.00000   -0.05121
2531.50000   -0.02907
2532.00000   -0.00762
2532.50000    0.01287
2533.00000    0.03217
2533.50000    0.05016
2534.00000    0.06676
2534.50000    0.08195
2535.00000    0.09579
2535.50000    0.10838
2536.00000    0.11988
2536.50000    0.13044
2537.00000    0.14027
2537.50000    0.14954
2538.00000    0.15843
2538.50000    0.16706
2539.00000    0.17552
2539.50000    0.18386
2540.00000    0.19205
2540.50000    0.19999
2541.00000    0.20754
2541.50000    0.21449
2542.00000    0.22060
2542.50000    0.22558
2543.00000    0.22911
2543.50000    0.23090
2544.00000    0.23064
2544.50000    0.22808
2545.00000    0.22300
2545.50000    0.21524
2546.00000    0.20474
2546.50000    0.19151
2547.00000    0.17564
2547.50000    0.15732
2548.00000    0.13683
2548.50000    0.11453
2549.00000    0.09086
2549.50000    0.06628
2550.00000    0.04132
2550.50000    0.01653
2551.00000   -0.00757
2551.50000   -0.03047
2552.00000   -0.05169
2552.50000   -0.07084
2553.00000   -0.08760
2553.50000   -0.10173
2554.00000   -0.11309
2554.50000   -0.12167
2555.00000   -0.12754
2555.50000   -0.13087
2556.00000   -0.13193
2556.50000   -0.13104
2557.00000   -0.12860
2557.50000   -0.12502
2558.00000   -0.12075
2558.50000   -0.11620
2559.00000   -0.11178
2559.50000   -0.10780
2560.00000   -0.10456
2560.50000   -0.10223
2561.00000   -0.10091
2561.50000   -0.10062
2562.00000   -0.10124
2562.50000   -0.10261
2563.00000   -0.10447
2563.50000   -0.10649
2564.00000   -0.10830
2564.50000   -0.10951
2565.00000   -0.10969
2565.50000   -0.10846
2566.00000   -0.10541
2566.50000   -0.10023
2567.00000   -0.09260
2567.50000   -0.08232
2568.00000   -0.06920
2568.50000   -0.05317
2569.00000   -0.03418
2569.50000   -0.01227
2570.00000    0.01247
2570.50000    0.03991
2571.00000    0.06985
2571.50000    0.10210
2572.00000    0.13640
2572.50000    0.17250
2573.00000    0.21012
2573.50000    0.24897
2574.00000    0.28875
2574.50000    0.32913
2575.00000    0.36981
2575.50000    0.41044
2576.00000    0.45069
2576.50000    0.49018
2577.00000    0.52856
2577.50000    0.56546
2578.00000    0.60049
2578.50000    0.63330
2579.00000    0.66351
2579.50000    0.69081
2580.00000    0.71487
2580.50000    0.73545
2581.00000    0.75232
2581.50000    0.76535
2582.00000    0.77447
2582.50000    0.77967
2583.00000    0.78105
2583.50000    0.77879
2584.00000    0.77313
2584.50000    0.76441
2585.00000    0.75304
2585.50000    0.73948
2586.00000    0.72424
2586.50000    0.70785
2587.00000    0.69086
2587.50000    0.67381
2588.00000    0.65721
2588.50000    0.64152
2589.00000    0.62713
2589.50000    0.61438
2590.00000    0.60348
2590.50000    0.59456
2591.00000    0.58765
2591.50000    0.58265
2592.00000    0.57938
2592.50000    0.57754
2593.00000    0.57678
2593.50000    0.57664
2594.00000    0.57664
2594.50000    0.57627
2595.00000    0.57498
2595.50000    0.57228
2596.00000    0.56769
2596.50000    0.56078
2597.00000    0.55122
2597.50000    0.53876
2598.00000    0.52324
2598.50000    0.50462
2599.00000    0.48297
2599.50000    0.45846
2600.00000    0.43136
2600.50000    0.40205
2601.00000    0.37097
2601.50000    0.33861
2602.00000    0.30552
2602.50000    0.27229
2603.00000    0.23946
2603.50000    0.20759
2604.00000    0.17721
2604.50000    0.14875
2605.00000    0.12262
2605.50000    0.09911
2606.00000    0.07844
2606.50000    0.06070
2607.00000    0.04590
2607.50000    0.03392
2608.00000    0.02456
2608.50000    0.01749
2609.00000    0.01232
2609.50000    0.00857
2610.00000    0.00570
2610.50000    0.00314
2611.00000    0.00030
2611.50000   -0.00340
2612.00000   -0.00851
2612.50000   -0.01552
2613.00000   -0.02484
2613.50000   -0.03675
2614.00000   -0.05144
2614.50000   -0.06894
2615.00000   -0.08915
2615.50000   -0.11182
2616.00000   -0.13656
2616.50000   -0.16285
2617.00000   -0.19006
2617.50000   -0.21748
2618.00000   -0.24436
2618.50000   -0.26990
2619.00000   -0.29333
2619.50000   -0.31394
2620.00000   -0.33107
2620.50000   -0.34419
2621.00000   -0.35288
2621.50000   -0.35688
2622.00000   -0.35608
2622.50000   -0.35052
2623.00000   -0.34039
2623.50000   -0.32601
2624.00000   -0.30782
2624.50000   -0.28634
2625.00000   -0.26216
2625.50000   -0.23589
2626.00000   -0.20816
2626.50000   -0.17958
2627.00000   -0.15070
2627.50000   -0.12202
2628.00000   -0.09398
2628.50000   -0.06691
2629.00000   -0.04108
2629.50000   -0.01668
2630.00000    0.00617
2630.50000    0.02742
2631.00000    0.04705
2631.50000    0.06509
2632.00000    0.08156
2632.50000    0.09653
2633.00000    0.11004
2633.50000    0.12214
2634.00000    0.13284
2634.50000    0.14219
2635.00000    0.15018
2635.50000    0.15685
2636.00000    0.16222
2636.50000    0.16633
2637.00000    0.16925
2637.50000    0.17110
2638.00000    0.17202
2638.50000    0.17223
2639.00000    0.17196
2639.50000    0.17154
2640.00000    0.17130
2640.50000    0.17165
2641.00000    0.17302
2641.50000    0.17585
2642.00000    0.18059
2642.50000    0.18770
2643.00000    0.19760
2643.50000    0.21068
2644.00000    0.22727
2644.50000    0.24767
2645.00000    0.27208
2645.50000    0.30067
2646.00000    0.33350
2646.50000    0.37058
2647.00000    0.41187
2647.50000    0.45726
2648.00000    0.50662
2648.50000    0.55979
2649.00000    0.61658
2649.50000    0.67683
2650.00000    0.74038
2650.50000    0.80710
2651.00000    0.87691
2651.50000    0.94976
2652.00000    1.02565
2652.50000    1.10464
2653.00000    1.18683
2653.50000    1.27234
2654.00000    1.36136
2654.50000    1.45408
2655.00000    1.55069
2655.50000    1.65140
2656.00000    1.75642
2656.50000    1.86591
2657.00000    1.98003
2657.50000    2.09889
2658.00000    2.22260
2658.50000    2.35120
2659.00000    2.48471
2659.50000    2.62313
2660.00000    2.76642
2660.50000    2.91454
2661.00000    3.06741
2661.50000    3.22494
2662.00000    3.38705
2662.50000    3.55362
2663.00000    3.72455
2663.50000    3.89971
2664.00000    4.07896
2664.50000    4.26214
2665.00000    4.44906
2665.50000    4.63952
2666.00000    4.83325
2666.50000    5.02997
2667.00000    5.22934
2667.50000    5.43097
2668.00000    5.63442
2668.50000    5.83921
2669.00000    6.04482
2669.50000    6.25066
2670.00000    6.45613
2670.50000    6.66061
2671.00000    6.86345
2671.50000    7.06399
2672.00000    7.26157
2672.50000    7.45554
2673.00000    7.64530
2673.50000    7.83023
2674.00000    8.00977
2674.50000    8.18342
2675.00000    8.35070
2675.50000    8.51119
2676.00000    8.66452
2676.50000    8.81037
2677.00000    8.94847
2677.50000    9.07861
2678.00000    9.20061
2678.50000    9.31431
2679.00000    9.41962
2679.50000    9.51644
2680.00000    9.60468
2680.50000    9.68428
2681.00000    9.75518
2681.50000    9.81728
2682.00000    9.87052
2682.50000    9.91479
2683.00000    9.94999
2683.50000    9.97601
2684.00000    9.99272
2684.50000   10.00000
2685.00000    9.99773
2685.50000    9.98580
2686.00000    9.96411
2686.50000    9.93259
2687.00000    9.89120
2687.50000    9.83992
2688.00000    9.77877
2688.50000    9.70783
2689.00000    9.62720
2689.50000    9.53704
2690.00000    9.43753
2690.50000    9.32892
2691.00000    9.21149
2691.50000    9.08556
2692.00000    8.95148
2692.50000    8.80966
2693.00000    8.66054
2693.50000    8.50460
2694.00000    8.34235
2694.50000    8.17433
2695.00000    8.00114
2695.50000    7.82338
2696.00000    7.64170
2696.50000    7.45675
2697.00000    7.26918
2697.50000    7.07967
2698.00000    6.88885
2698.50000    6.69735
2699.00000    6.50575
2699.50000    6.31459
2700.00000    6.12435
2700.50000    5.93543
2701.00000    5.74819
2701.50000    5.56291
2702.00000    5.37980
2702.50000    5.19905
2703.00000    5.02078
2703.50000    4.84509
2704.00000    4.67209
2704.50000    4.50188
2705.00000    4.33460
2705.50000    4.17042
2706.00000    4.00959
2706.50000    3.85237
2707.00000    3.69912
2707.50000    3.55023
2708.00000    3.40614
2708.50000    3.26732
2709.00000    3.13424
2709.50000    3.00733
2710.00000    2.88701
2710.50000    2.77359
2711.00000    2.66733
2711.50000    2.56833
2712.00000    2.47660
2712.50000    2.39197
2713.00000    2.31417
2713.50000    2.24277
2714.00000    2.17721
2714.50000    2.11686
2715.00000    2.06095
2715.50000    2.00871
2716.00000    1.95929
2716.50000    1.91187
2717.00000    1.86564
2717.50000    1.81984
2718.00000    1.77380
2718.50000    1.72693
2719.00000    1.67873
2719.50000    1.62884
2720.00000    1.57698
2720.50000    1.52300
2721.00000    1.46684
2721.50000    1.40852
2722.00000    1.34816
2722.50000    1.28592
2723.00000    1.22202
2723.50000    1.15671
2724.00000    1.09026
2724.50000    1.02295
2725.00000    0.95505
2725.50000    0.88685
2726.00000    0.81860
2726.50000    0.75057
2727.00000    0.68302
2727.50000    0.61620
2728.00000    0.55036
2728.50000    0.48577
2729.00000    0.42272
2729.50000    0.36151
2730.00000    0.30246
2730.50000    0.24593
2731.00000    0.19229
2731.50000    0.14195
2732.00000    0.09530
2732.50000    0.05278
2733.00000    0.01480
2733.50000   -0.01826
2734.00000   -0.04603
2734.50000   -0.06820
2735.00000   -0.08454
2735.50000   -0.09491
2736.00000   -0.09926
2736.50000   -0.09766
2737.00000   -0.09030
2737.50000   -0.07749
2738.00000   -0.05969
2738.50000   -0.03746
2739.00000   -0.01148
2739.50000    0.01747
2740.00000    0.04855
2740.50000    0.08084
2741.00000    0.11341
2741.50000    0.14532
2742.00000    0.17567
2742.50000    0.20357
2743.00000    0.22825
2743.50000    0.24901
2744.00000    0.26525
2744.50000    0.27652
2745.00000    0.28248
2745.50000    0.28291
2746.00000    0.27776
2746.50000    0.26705
2747.00000    0.25097
2747.50000    0.22978
2748.00000    0.20385
2748.50000    0.17363
2749.00000    0.13964
2749.50000    0.10244
2750.00000    0.06266
2750.50000    0.02097
2751.00000   -0.02195
2751.50000   -0.06541
2752.00000   -0.10869
2752.50000   -0.15108
2753.00000   -0.19188
2753.50000   -0.23041
2754.00000   -0.26603
2754.50000   -0.29812
2755.00000   -0.32612
2755.50000   -0.34956
2756.00000   -0.36801
2756.50000   -0.38113
2757.00000   -0.38869
2757.50000   -0.39055
2758.00000   -0.38666
2758.50000   -0.37706
2759.00000   -0.36190
2759.50000   -0.34141
2760.00000   -0.31591
2760.50000   -0.28576
2761.00000   -0.25138
2761.50000   -0.21326
2762.00000   -0.17187
2762.50000   -0.12774
2763.00000   -0.08137
2763.50000   -0.03328
2764.00000    0.01602
2764.50000    0.06606
2765.00000    0.11635
2765.50000    0.16644
2766.00000    0.21591
2766.50000    0.26435
2767.00000    0.31138
2767.50000    0.35662
2768.00000    0.39976
2768.50000    0.44049
2769.00000    0.47855
2769.50000    0.51369
2770.00000    0.54572
2770.50000    0.57449
2771.00000    0.59985
2771.50000    0.62173
2772.00000    0.64005
2772.50000    0.65477
2773.00000    0.66586
2773.50000    0.67331
2774.00000    0.67710
2774.50000    0.67720
2775.00000    0.67359
2775.50000    0.66623
2776.00000    0.65508
2776.50000    0.64009
2777.00000    0.62123
2777.50000    0.59850
2778.00000    0.57192
2778.50000    0.54158
2779.00000    0.50763
2779.50000    0.47032
2780.00000    0.42999
2780.50000    0.38707
2781.00000    0.34210
2781.50000    0.29572
2782.00000    0.24864
2782.50000    0.20162
2783.00000    0.15549
2783.50000    0.11105
2784.00000    0.06907
2784.50000    0.03029
2785.00000   -0.00467
2785.50000   -0.03529
2786.00000   -0.06118
2786.50000   -0.08211
2787.00000   -0.09799
2787.50000   -0.10889
2788.00000   -0.11499
2788.50000   -0.11662
2789.00000   -0.11417
2789.50000   -0.10813
2790.00000   -0.09901
2790.50000   -0.08733
2791.00000   -0.07362
2791.50000   -0.05835
2792.00000   -0.04196
2792.50000   -0.02483
2793.00000   -0.00725
2793.50000    0.01050
2794.00000    0.02825
2794.50000    0.04584
2795.00000    0.06317
2795.50000    0.08015
2796.00000    0.09671
2796.50000    0.11276
2797.00000    0.12823
2797.50000    0.14303
2798.00000    0.15704
2798.50000    0.17015
2799.00000    0.18221
2799.50000    0.19307
2800.00000    0.20260
2800.50000    0.21063
2801.00000    0.21703
2801.50000    0.22164
2802.00000    0.22436
2802.50000    0.22505
2803.00000    0.22361
2803.50000    0.21994
2804.00000    0.21394
2804.50000    0.20552
2805.00000    0.19460
2805.50000    0.18109
2806.00000    0.16494
2806.50000    0.14608
2807.00000    0.12450
2807.50000    0.10022
2808.00000    0.07330
2808.50000    0.04385
2809.00000    0.01207
2809.50000   -0.02177
2810.00000   -0.05733
2810.50000   -0.09417
2811.00000   -0.13180
2811.50000   -0.16964
2812.00000   -0.20706
2812.50000   -0.24340
2813.00000   -0.27796
2813.50000   -0.31005
2814.00000   -0.33903
2814.50000   -0.36427
2815.00000   -0.38525
2815.50000   -0.40150
2816.00000   -0.41269
2816.50000   -0.41857
2817.00000   -0.41904
2817.50000   -0.41410
2818.00000   -0.40389
2818.50000   -0.38866
2819.00000   -0.36874
2819.50000   -0.34457
2820.00000   -0.31665
2820.50000   -0.28556
2821.00000   -0.25188
2821.50000   -0.21626
2822.00000   -0.17931
2822.50000   -0.14167
2823.00000   -0.10394
2823.50000   -0.06671
2824.00000   -0.03050
2824.50000    0.00418
2825.00000    0.03690
2825.50000    0.06730
2826.00000    0.09505
2826.50000    0.11992
2827.00000    0.14174
2827.50000    0.16042
2828.00000    0.17592
2828.50000    0.18829
2829.00000    0.19764
2829.50000    0.20411
2830.00000    0.20792
2830.50000    0.20931
2831.00000    0.20855
2831.50000    0.20591
2832.00000    0.20168
2832.50000    0.19612
2833.00000    0.18946
2833.50000    0.18190
2834.00000    0.17361
2834.50000    0.16471
2835.00000    0.15526
2835.50000    0.14531
2836.00000    0.13484
2836.50000    0.12384
2837.00000    0.11226
2837.50000    0.10007
2838.00000    0.08726
2838.50000    0.07381
2839.00000    0.05976
2839.50000    0.04521
2840.00000    0.03027
2840.50000    0.01512
2841.00000   -0.00001
2841.50000   -0.01487
2842.00000   -0.02916
2842.50000   -0.04259
2843.00000   -0.05484
2843.50000   -0.06563
2844.00000   -0.07468
2844.50000   -0.08177
2845.00000   -0.08674
2845.50000   -0.08947
2846.00000   -0.08993
2846.50000   -0.08815
2847.00000   -0.08424
2847.50000   -0.07839
2848.00000   -0.07081
2848.50000   -0.06180
2849.00000   -0.05170
2849.50000   -0.04085
2850.00000   -0.02963
2850.50000   -0.01841
2851.00000   -0.00756
2851.50000    0.00258
2852.00000    0.01173
2852.50000    0.01961
2853.00000    0.02603
2853.50000    0.03085
2854.00000    0.03398
2854.50000    0.03542
2855.00000    0.03522
2855.50000    0.03347
2856.00000    0.03034
2856.50000    0.02604
2857.00000    0.02079
2857.50000    0.01486
2858.00000    0.00850
2858.50000    0.00198
2859.00000   -0.00446
2859.50000   -0.01061
2860.00000   -0.01629
2860.50000   -0.02135
2861.00000   -0.02570
2861.50000   -0.02927
2862.00000   -0.03205
2862.50000   -0.03404
2863.00000   -0.03526
2863.50000   -0.03575
2864.00000   -0.03554
2864.50000   -0.03466
2865.00000   -0.03311
2865.50000   -0.03087
2866.00000   -0.02790
2866.50000   -0.02413
2867.00000   -0.01949
2867.50000   -0.01389
2868.00000   -0.00727
2868.50000    0.00044
2869.00000    0.00925
2869.50000    0.01913
2870.00000    0.03000
2870.50000    0.04172
2871.00000    0.05407
2871.50000    0.06678
2872.00000    0.07954
2872.50000    0.09196
2873.00000    0.10368
2873.50000    0.11431
2874.00000    0.12349
2874.50000    0.13088
2875.00000    0.13623
2875.50000    0.13934
2876.00000    0.14013
2876.50000    0.13859
2877.00000    0.13482
2877.50000    0.12901
2878.00000    0.12142
2878.50000    0.11241
2879.00000    0.10234
2879.50000    0.09164
2880.00000    0.08071
2880.50000    0.06996
2881.00000    0.05974
2881.50000    0.05033
2882.00000    0.04198
2882.50000    0.03483
2883.00000    0.02893
2883.50000    0.02427
2884.00000    0.02076
2884.50000    0.01822
2885.00000    0.01645
2885.50000    0.01520
2886.00000    0.01419
2886.50000    0.01315
2887.00000    0.01182
2887.50000    0.00995
2888.00000    0.00736
2888.50000    0.00388
2889.00000   -0.00057
2889.50000   -0.00603
2890.00000   -0.01248
2890.50000   -0.01982
2891.00000   -0.02794
2891.50000   -0.03665
2892.00000   -0.04574
2892.50000   -0.05498
2893.00000   -0.06413
2893.50000   -0.07294
2894.00000   -0.08120
2894.50000   -0.08871
2895.00000   -0.09534
2895.50000   -0.10098
2896.00000   -0.10559
2896.50000   -0.10919
2897.00000   -0.11187
2897.50000   -0.11375
2898.00000   -0.11500
2898.50000   -0.11580
2899.00000   -0.11636
2899.50000   -0.11681
