1200.50000   -0.19796
1201.00000   -0.16170
1201.50000   -0.12562
1202.00000   -0.08988
1202.50000   -0.05467
1203.00000   -0.02022
1203.50000    0.01323
1204.00000    0.04543
1204.50000    0.07613
1205.00000    0.10511
1205.50000    0.13217
1206.00000    0.15712
1206.50000    0.17982
1207.00000    0.20017
1207.50000    0.21812
1208.00000    0.23364
1208.50000    0.24678
1209.00000    0.25759
1209.50000    0.26617
1210.00000    0.27267
1210.50000    0.27723
1211.00000    0.28002
1211.50000    0.28121
1212.00000    0.28098
1212.50000    0.27948
1213.00000    0.27686
1213.50000    0.27322
1214.00000    0.26867
1214.50000    0.26323
1215.00000    0.25695
1215.50000    0.24979
1216.00000    0.24172
1216.50000    0.23265
1217.00000    0.22248
1217.50000    0.21108
1218.00000    0.19834
1218.50000    0.18412
1219.00000    0.16830
1219.50000    0.15077
1220.00000    0.13144
1220.50000    0.11028
1221.00000    0.08726
1221.50000    0.06243
1222.00000    0.03586
1222.50000    0.00767
1223.00000   -0.02195
1223.50000   -0.05280
1224.00000   -0.08462
1224.50000   -0.11711
1225.00000   -0.14996
1225.50000   -0.18282
1226.00000   -0.21534
1226.50000   -0.24718
1227.00000   -0.27797
1227.50000   -0.30738
1228.00000   -0.33510
1228.50000   -0.36084
1229.00000   -0.38433
1229.50000   -0.40534
1230.00000   -0.42368
1230.50000   -0.43919
1231.00000   -0.45174
1231.50000   -0.46123
1232.00000   -0.46760
1232.50000   -0.47081
1233.00000   -0.47084
1233.50000   -0.46771
1234.00000   -0.46144
1234.50000   -0.45208
1235.00000   -0.43970
1235.50000   -0.42437
1236.00000   -0.40620
1236.50000   -0.38531
1237.00000   -0.36182
1237.50000   -0.33588
1238.00000   -0.30766
1238.50000   -0.27734
1239.00000   -0.24511
1239.50000   -0.21117
1240.00000   -0.17574
1240.50000   -0.13904
1241.00000   -0.10128
1241.50000   -0.06269
1242.00000   -0.02347
1242.50000    0.01617
1243.00000    0.05606
1243.50000    0.09603
1244.00000    0.13594
1244.50000    0.17566
1245.00000    0.21512
1245.50000    0.25423
1246.00000    0.29293
1246.50000    0.33119
1247.00000    0.36897
1247.50000    0.40624
1248.00000    0.44295
1248.50000    0.47908
1249.00000    0.51454
1249.50000    0.54925
1250.00000    0.58311
1250.50000    0.61598
1251.00000    0.64766
1251.50000    0.67798
1252.00000    0.70668
1252.50000    0.73352
1253.00000    0.75822
1253.50000    0.78048
1254.00000    0.80002
1254.50000    0.81654
1255.00000    0.82978
1255.50000    0.83949
1256.00000    0.84544
1256.50000    0.84746
1257.00000    0.84544
1257.50000    0.83928
1258.00000    0.82899
1258.50000    0.81461
1259.00000    0.79626
1259.50000    0.77412
1260.00000    0.74845
1260.50000    0.71955
1261.00000    0.68780
1261.50000    0.65362
1262.00000    0.61747
1262.50000    0.57985
1263.00000    0.54130
1263.50000    0.50235
1264.00000    0.46357
1264.50000    0.42550
1265.00000    0.38865
1265.50000    0.35354
1266.00000    0.32061
1266.50000    0.29027
1267.00000    0.26284
1267.50000    0.23860
1268.00000    0.21772
1268.50000    0.20029
1269.00000    0.18631
1269.50000    0.17568
1270.00000    0.16822
1270.50000    0.16365
1271.00000    0.16160
1271.50000    0.16167
1272.00000    0.16335
1272.50000    0.16613
1273.00000    0.16945
1273.50000    0.17274
1274.00000    0.17545
1274.50000    0.17704
1275.00000    0.17701
1275.50000    0.17493
1276.00000    0.17042
1276.50000    0.16320
1277.00000    0.15307
1277.50000    0.13993
1278.00000    0.12376
1278.50000    0.10464
1279.00000    0.08275
1279.50000    0.05834
1280.00000    0.03172
1280.50000    0.00326
1281.00000   -0.02663
1281.50000   -0.05751
1282.00000   -0.08894
1282.50000   -0.12047
1283.00000   -0.15167
1283.50000   -0.18214
1284.00000   -0.21151
1284.50000   -0.23947
1285.00000   -0.26574
1285.50000   -0.29010
1286.00000   -0.31239
1286.50000   -0.33247
1287.00000   -0.35028
1287.50000   -0.36576
1288.00000   -0.37889
1288.50000   -0.38968
1289.00000   -0.39813
1289.50000   -0.40426
1290.00000   -0.40805
1290.50000   -0.40951
1291.00000   -0.40861
1291.50000   -0.40530
1292.00000   -0.39953
1292.50000   -0.39122
1293.00000   -0.38027
1293.50000   -0.36660
1294.00000   -0.35012
1294.50000   -0.33076
1295.00000   -0.30847
1295.50000   -0.28325
1296.00000   -0.25513
1296.50000   -0.22422
1297.00000   -0.19068
1297.50000   -0.15476
1298.00000   -0.11675
1298.50000   -0.07705
1299.00000   -0.03610
1299.50000    0.00557
1300.00000    0.04740
1300.50000    0.08879
1301.00000    0.12911
1301.50000    0.16774
1302.00000    0.20406
1302.50000    0.23751
1303.00000    0.26758
1303.50000    0.29382
1304.00000    0.31590
1304.50000    0.33357
1305.00000    0.34669
1305.50000    0.35525
1306.00000    0.35933
1306.50000    0.35912
1307.00000    0.35489
1307.50000    0.34700
1308.00000    0.33587
1308.50000    0.32194
1309.00000    0.30568
1309.50000    0.28757
1310.00000    0.26804
1310.50000    0.24750
1311.00000    0.22631
1311.50000    0.20475
1312.00000    0.18307
1312.50000    0.16141
1313.00000    0.13988
1313.50000    0.11854
1314.00000    0.09742
1314.50000    0.07653
1315.00000    0.05587
1315.50000    0.03550
1316.00000    0.01549
1316.50000   -0.00403
1317.00000   -0.02285
1317.50000   -0.04069
1318.00000   -0.05718
1318.50000   -0.07188
1319.00000   -0.08427
1319.50000   -0.09378
1320.00000   -0.09976
1320.50000   -0.10156
1321.00000   -0.09853
1321.50000   -0.09002
1322.00000   -0.07544
1322.50000   -0.05425
1323.00000   -0.02599
1323.50000    0.00967
1324.00000    0.05301
1324.50000    0.10414
1325.00000    0.16311
1325.50000    0.22982
1326.00000    0.30411
1326.50000    0.38570
1327.00000    0.47428
1327.50000    0.56945
1328.00000    0.67082
1328.50000    0.77794
1329.00000    0.89040
1329.50000    1.00780
1330.00000    1.12975
1330.50000    1.25591
1331.00000    1.38595
1331.50000    1.51961
1332.00000    1.65660
1332.50000    1.79667
1333.00000    1.93954
1333.50000    2.08494
1334.00000    2.23253
1334.50000    2.38193
1335.00000    2.53270
1335.50000    2.68430
1336.00000    2.83612
1336.50000    2.98747
1337.00000    3.13754
1337.50000    3.28546
1338.00000    3.43030
1338.50000    3.57105
1339.00000    3.70670
1339.50000    3.83621
1340.00000    3.95857
1340.50000    4.07280
1341.00000    4.17801
1341.50000    4.27340
1342.00000    4.35829
1342.50000    4.43212
1343.00000    4.49451
1343.50000    4.54522
1344.00000    4.58418
1344.50000    4.61147
1345.00000    4.62736
1345.50000    4.63225
1346.00000    4.62666
1346.50000    4.61126
1347.00000    4.58679
1347.50000    4.55405
1348.00000    4.51391
1348.50000    4.46722
1349.00000    4.41483
1349.50000    4.35757
1350.00000    4.29618
1350.50000    4.23136
1351.00000    4.16370
1351.50000    4.09369
1352.00000    4.02175
1352.50000    3.94815
1353.00000    3.87310
1353.50000    3.79671
1354.00000    3.71900
1354.50000    3.63994
1355.00000    3.55946
1355.50000    3.47743
1356.00000    3.39376
1356.50000    3.30834
1357.00000    3.22110
1357.50000    3.13203
1358.00000    3.04117
1358.50000    2.94865
1359.00000    2.85466
1359.50000    2.75948
1360.00000    2.66350
1360.50000    2.56715
1361.00000    2.47096
1361.50000    2.37550
1362.00000    2.28140
1362.50000    2.18933
1363.00000    2.09993
1363.50000    2.01388
1364.00000    1.93180
1364.50000    1.85428
1365.00000    1.78184
1365.50000    1.71493
1366.00000    1.65390
1366.50000    1.59901
1367.00000    1.55042
1367.50000    1.50818
1368.00000    1.47225
1368.50000    1.44248
1369.00000    1.41865
1369.50000    1.40043
1370.00000    1.38746
1370.50000    1.37929
1371.00000    1.37544
1371.50000    1.37540
1372.00000    1.37862
1372.50000    1.38457
1373.00000    1.39268
1373.50000    1.40240
1374.00000    1.41319
1374.50000    1.42451
1375.00000    1.43585
1375.50000    1.44671
1376.00000    1.45660
1376.50000    1.46505
1377.00000    1.47161
1377.50000    1.47586
1378.00000    1.47739
1378.50000    1.47582
1379.00000    1.47080
1379.50000    1.46202
1380.00000    1.44923
1380.50000    1.43220
1381.00000    1.41077
1381.50000    1.38486
1382.00000    1.35443
1382.50000    1.31953
1383.00000    1.28030
1383.50000    1.23692
1384.00000    1.18967
1384.50000    1.13890
1385.00000    1.08500
1385.50000    1.02842
1386.00000    0.96964
1386.50000    0.90917
1387.00000    0.84751
1387.50000    0.78518
1388.00000    0.72266
1388.50000    0.66040
1389.00000    0.59880
1389.50000    0.53824
1390.00000    0.47901
1390.50000    0.42138
1391.00000    0.36554
1391.50000    0.31164
1392.00000    0.25978
1392.50000    0.21004
1393.00000    0.16248
1393.50000    0.11712
1394.00000    0.07401
1394.50000    0.03319
1395.00000   -0.00526
1395.50000   -0.04127
1396.00000   -0.07472
1396.50000   -0.10547
1397.00000   -0.13336
1397.50000   -0.15823
1398.00000   -0.17990
1398.50000   -0.19819
1399.00000   -0.21295
1399.50000   -0.22404
1400.00000   -0.23137
1400.50000   -0.23492
1401.00000   -0.23468
1401.50000   -0.23076
1402.00000   -0.22330
1402.50000   -0.21254
1403.00000   -0.19876
1403.50000   -0.18234
1404.00000   -0.16368
1404.50000   -0.14324
1405.00000   -0.12151
1405.50000   -0.09898
1406.00000   -0.07616
1406.50000   -0.05355
1407.00000   -0.03162
1407.50000   -0.01082
1408.00000    0.00846
1408.50000    0.02585
1409.00000    0.04107
1409.50000    0.05385
1410.00000    0.06403
1410.50000    0.07146
1411.00000    0.07607
1411.50000    0.07784
1412.00000    0.07679
1412.50000    0.07300
1413.00000    0.06658
1413.50000    0.05769
1414.00000    0.04652
1414.50000    0.03329
1415.00000    0.01826
1415.50000    0.00170
1416.00000   -0.01608
1416.50000   -0.03475
1417.00000   -0.05399
1417.50000   -0.07345
1418.00000   -0.09279
1418.50000   -0.11167
1419.00000   -0.12977
1419.50000   -0.14679
1420.00000   -0.16245
1420.50000   -0.17654
1421.00000   -0.18887
1421.50000   -0.19930
1422.00000   -0.20777
1422.50000   -0.21425
1423.00000   -0.21878
1423.50000   -0.22144
1424.00000   -0.22236
1424.50000   -0.22168
1425.00000   -0.21958
1425.50000   -0.21624
1426.00000   -0.21184
1426.50000   -0.20652
1427.00000   -0.20040
1427.50000   -0.19358
1428.00000   -0.18607
1428.50000   -0.17787
1429.00000   -0.16890
1429.50000   -0.15904
1430.00000   -0.14813
1430.50000   -0.13598
1431.00000   -0.12239
1431.50000   -0.10713
1432.00000   -0.09002
1432.50000   -0.07091
1433.00000   -0.04968
1433.50000   -0.02631
1434.00000   -0.00084
1434.50000    0.02662
1435.00000    0.05584
1435.50000    0.08653
1436.00000    0.11828
1436.50000    0.15065
1437.00000    0.18311
1437.50000    0.21510
1438.00000    0.24602
1438.50000    0.27528
1439.00000    0.30231
1439.50000    0.32658
1440.00000    0.34759
1440.50000    0.36495
1441.00000    0.37834
1441.50000    0.38753
1442.00000    0.39242
1442.50000    0.39299
1443.00000    0.38934
1443.50000    0.38163
1444.00000    0.37015
1444.50000    0.35523
1445.00000    0.33728
1445.50000    0.31675
1446.00000    0.29412
1446.50000    0.26991
1447.00000    0.24464
1447.50000    0.21882
1448.00000    0.19297
1448.50000    0.16756
1449.00000    0.14306
1449.50000    0.11988
1450.00000    0.09842
1450.50000    0.07899
1451.00000    0.06189
1451.50000    0.04734
1452.00000    0.03550
1452.50000    0.02647
1453.00000    0.02028
1453.50000    0.01690
1454.00000    0.01621
1454.50000    0.01805
1455.00000    0.02216
1455.50000    0.02823
1456.00000    0.03591
1456.50000    0.04479
1457.00000    0.05441
1457.50000    0.06431
1458.00000    0.07403
1458.50000    0.08309
1459.00000    0.09107
1459.50000    0.09757
1460.00000    0.10226
1460.50000    0.10488
1461.00000    0.10525
1461.50000    0.10330
1462.00000    0.09903
1462.50000    0.09253
1463.00000    0.08401
1463.50000    0.07370
1464.00000    0.06195
1464.50000    0.04910
1465.00000    0.03555
1465.50000    0.02171
1466.00000    0.00796
1466.50000   -0.00533
1467.00000   -0.01784
1467.50000   -0.02931
1468.00000   -0.03953
1468.50000   -0.04838
1469.00000   -0.05580
1469.50000   -0.06180
1470.00000   -0.06645
1470.50000   -0.06988
1471.00000   -0.07227
1471.50000   -0.07380
1472.00000   -0.07469
1472.50000   -0.07515
1473.00000   -0.07537
1473.50000   -0.07552
1474.00000   -0.07575
1474.50000   -0.07617
1475.00000   -0.07685
1475.50000   -0.07782
1476.00000   -0.07909
1476.50000   -0.08062
1477.00000   -0.08236
1477.50000   -0.08426
1478.00000   -0.08625
1478.50000   -0.08827
1479.00000   -0.09024
1479.50000   -0.09214
1480.00000   -0.09393
1480.50000   -0.09561
1481.00000   -0.09718
1481.50000   -0.09867
1482.00000   -0.10013
1482.50000   -0.10159
1483.00000   -0.10311
1483.50000   -0.10474
1484.00000   -0.10650
1484.50000   -0.10844
1485.00000   -0.11055
1485.50000   -0.11284
1486.00000   -0.11526
1486.50000   -0.11779
1487.00000   -0.12035
1487.50000   -0.12287
1488.00000   -0.12526
1488.50000   -0.12742
1489.00000   -0.12925
1489.50000   -0.13066
1490.00000   -0.13154
1490.50000   -0.13181
1491.00000   -0.13140
1491.50000   -0.13024
1492.00000   -0.12828
1492.50000   -0.12550
1493.00000   -0.12188
1493.50000   -0.11744
1494.00000   -0.11219
1494.50000   -0.10618
1495.00000   -0.09947
1495.50000   -0.09214
1496.00000   -0.08429
1496.50000   -0.07603
1497.00000   -0.06748
1497.50000   -0.05877
1498.00000   -0.05005
1498.50000   -0.04146
1499.00000   -0.03315
1499.50000   -0.02526
1500.00000   -0.01792
1500.50000   -0.01126
1501.00000   -0.00537
1501.50000   -0.00034
1502.00000    0.00378
1502.50000    0.00695
1503.00000    0.00916
1503.50000    0.01044
1504.00000    0.01083
1504.50000    0.01038
1505.00000    0.00917
1505.50000    0.00728
1506.00000    0.00480
1506.50000    0.00181
1507.00000   -0.00163
1507.50000   -0.00546
1508.00000   -0.00962
1508.50000   -0.01411
1509.00000   -0.01892
1509.50000   -0.02406
1510.00000   -0.02955
1510.50000   -0.03545
1511.00000   -0.04178
1511.50000   -0.04859
1512.00000   -0.05589
1512.50000   -0.06370
1513.00000   -0.07200
1513.50000   -0.08073
1514.00000   -0.08983
1514.50000   -0.09919
1515.00000   -0.10866
1515.50000   -0.11808
1516.00000   -0.12728
1516.50000   -0.13606
1517.00000   -0.14423
1517.50000   -0.15161
1518.00000   -0.15802
1518.50000   -0.16332
1519.00000   -0.16739
1519.50000   -0.17017
1520.00000   -0.17160
1520.50000   -0.17170
1521.00000   -0.17050
1521.50000   -0.16807
1522.00000   -0.16451
1522.50000   -0.15995
1523.00000   -0.15450
1523.50000   -0.14829
1524.00000   -0.14143
1524.50000   -0.13402
1525.00000   -0.12614
1525.50000   -0.11782
1526.00000   -0.10908
1526.50000   -0.09992
1527.00000   -0.09029
1527.50000   -0.08016
1528.00000   -0.06947
1528.50000   -0.05816
1529.00000   -0.04618
1529.50000   -0.03350
1530.00000   -0.02012
1530.50000   -0.00606
1531.00000    0.00861
1531.50000    0.02379
1532.00000    0.03934
1532.50000    0.05510
1533.00000    0.07088
1533.50000    0.08647
1534.00000    0.10168
1534.50000    0.11630
1535.00000    0.13018
1535.50000    0.14318
1536.00000    0.15521
1536.50000    0.16625
1537.00000    0.17631
1537.50000    0.18549
1538.00000    0.19392
1538.50000    0.20179
1539.00000    0.20932
1539.50000    0.21676
1540.00000    0.22438
1540.50000    0.23241
1541.00000    0.24109
1541.50000    0.25059
1542.00000    0.26104
1542.50000    0.27246
1543.00000    0.28481
1543.50000    0.29796
1544.00000    0.31166
1544.50000    0.32559
1545.00000    0.33932
1545.50000    0.35237
1546.00000    0.36421
1546.50000    0.37425
1547.00000    0.38193
1547.50000    0.38668
1548.00000    0.38798
1548.50000    0.38537
1549.00000    0.37848
1549.50000    0.36706
1550.00000    0.35096
1550.50000    0.33017
1551.00000    0.30479
1551.50000    0.27508
1552.00000    0.24141
1552.50000    0.20425
1553.00000    0.16420
1553.50000    0.12190
1554.00000    0.07806
1554.50000    0.03341
1555.00000   -0.01129
1555.50000   -0.05532
1556.00000   -0.09800
1556.50000   -0.13870
1557.00000   -0.17685
1557.50000   -0.21197
1558.00000   -0.24364
1558.50000   -0.27155
1559.00000   -0.29544
1559.50000   -0.31514
1560.00000   -0.33053
1560.50000   -0.34155
1561.00000   -0.34816
1561.50000   -0.35038
1562.00000   -0.34823
1562.50000   -0.34174
1563.00000   -0.33094
1563.50000   -0.31587
1564.00000   -0.29655
1564.50000   -0.27301
1565.00000   -0.24525
1565.50000   -0.21330
1566.00000   -0.17715
1566.50000   -0.13682
1567.00000   -0.09229
1567.50000   -0.04358
1568.00000    0.00932
1568.50000    0.06643
1569.00000    0.12778
1569.50000    0.19342
1570.00000    0.26344
1570.50000    0.33794
1571.00000    0.41709
1571.50000    0.50106
1572.00000    0.59011
1572.50000    0.68449
1573.00000    0.78452
1573.50000    0.89053
1574.00000    1.00285
1574.50000    1.12183
1575.00000    1.24776
1575.50000    1.38093
1576.00000    1.52151
1576.50000    1.66963
1577.00000    1.82529
1577.50000    1.98837
1578.00000    2.15864
1578.50000    2.33570
1579.00000    2.51906
1579.50000    2.70805
1580.00000    2.90191
1580.50000    3.09977
1581.00000    3.30066
1581.50000    3.50355
1582.00000    3.70735
1582.50000    3.91095
1583.00000    4.11322
1583.50000    4.31303
1584.00000    4.50929
1584.50000    4.70091
1585.00000    4.88685
1585.50000    5.06610
1586.00000    5.23771
1586.50000    5.40073
1587.00000    5.55426
1587.50000    5.69741
1588.00000    5.82934
1588.50000    5.94920
1589.00000    6.05616
1589.50000    6.14944
1590.00000    6.22825
1590.50000    6.29188
1591.00000    6.33966
1591.50000    6.37101
1592.00000    6.38545
1592.50000    6.38260
1593.00000    6.36226
1593.50000    6.32437
1594.00000    6.26904
1594.50000    6.19658
1595.00000    6.10750
1595.50000    6.00251
1596.00000    5.88247
1596.50000    5.74845
1597.00000    5.60168
1597.50000    5.44350
1598.00000    5.27537
1598.50000    5.09882
1599.00000    4.91542
1599.50000    4.72677
1600.00000    4.53441
1600.50000    4.33986
1601.00000    4.14456
1601.50000    3.94985
1602.00000    3.75697
1602.50000    3.56705
1603.00000    3.38109
1603.50000    3.20000
1604.00000    3.02455
1604.50000    2.85542
1605.00000    2.69321
1605.50000    2.53841
1606.00000    2.39144
1606.50000    2.25267
1607.00000    2.12238
1607.50000    2.00081
1608.00000    1.88814
1608.50000    1.78448
1609.00000    1.68989
1609.50000    1.60436
1610.00000    1.52782
1610.50000    1.46012
1611.00000    1.40104
1611.50000    1.35029
1612.00000    1.30750
1612.50000    1.27224
1613.00000    1.24401
1613.50000    1.22227
1614.00000    1.20644
1614.50000    1.19592
1615.00000    1.19013
1615.50000    1.18846
1616.00000    1.19037
1616.50000    1.19533
1617.00000    1.20288
1617.50000    1.21262
1618.00000    1.22421
1618.50000    1.23739
1619.00000    1.25193
1619.50000    1.26770
1620.00000    1.28458
1620.50000    1.30249
1621.00000    1.32137
1621.50000    1.34117
1622.00000    1.36178
1622.50000    1.38309
1623.00000    1.40493
1623.50000    1.42706
1624.00000    1.44918
1624.50000    1.47090
1625.00000    1.49178
1625.50000    1.51131
1626.00000    1.52891
1626.50000    1.54399
1627.00000    1.55592
1627.50000    1.56408
1628.00000    1.56787
1628.50000    1.56673
1629.00000    1.56018
1629.50000    1.54781
1630.00000    1.52932
1630.50000    1.50453
1631.00000    1.47336
1631.50000    1.43589
1632.00000    1.39231
1632.50000    1.34293
1633.00000    1.28821
1633.50000    1.22867
1634.00000    1.16493
1634.50000    1.09768
1635.00000    1.02767
1635.50000    0.95564
1636.00000    0.88236
1636.50000    0.80857
1637.00000    0.73498
1637.50000    0.66224
1638.00000    0.59095
1638.50000    0.52162
1639.00000    0.45469
1639.50000    0.39053
1640.00000    0.32940
1640.50000    0.27153
1641.00000    0.21702
1641.50000    0.16595
1642.00000    0.11833
1642.50000    0.07411
1643.00000    0.03322
1643.50000   -0.00444
1644.00000   -0.03898
1644.50000   -0.07055
1645.00000   -0.09926
1645.50000   -0.12524
1646.00000   -0.14860
1646.50000   -0.16944
1647.00000   -0.18784
1647.50000   -0.20387
1648.00000   -0.21759
1648.50000   -0.22903
1649.00000   -0.23822
1649.50000   -0.24517
1650.00000   -0.24991
1650.50000   -0.25245
1651.00000   -0.25281
1651.50000   -0.25101
1652.00000   -0.24711
1652.50000   -0.24116
1653.00000   -0.23324
1653.50000   -0.22345
1654.00000   -0.21189
1654.50000   -0.19873
1655.00000   -0.18410
1655.50000   -0.16819
1656.00000   -0.15119
1656.50000   -0.13329
1657.00000   -0.11469
1657.50000   -0.09559
1658.00000   -0.07617
1658.50000   -0.05661
1659.00000   -0.03706
1659.50000   -0.01764
1660.00000    0.00155
1660.50000    0.02045
1661.00000    0.03901
1661.50000    0.05724
1662.00000    0.07515
1662.50000    0.09277
1663.00000    0.11017
1663.50000    0.12739
1664.00000    0.14449
1664.50000    0.16151
1665.00000    0.17849
1665.50000    0.19541
1666.00000    0.21225
1666.50000    0.22894
1667.00000    0.24539
1667.50000    0.26143
1668.00000    0.27691
1668.50000    0.29160
1669.00000    0.30528
1669.50000    0.31770
1670.00000    0.32858
1670.50000    0.33769
1671.00000    0.34475
1671.50000    0.34957
1672.00000    0.35194
1672.50000    0.35171
1673.00000    0.34879
1673.50000    0.34313
1674.00000    0.33474
1674.50000    0.32368
1675.00000    0.31007
1675.50000    0.29409
1676.00000    0.27595
1676.50000    0.25591
1677.00000    0.23426
1677.50000    0.21131
1678.00000    0.18738
1678.50000    0.16280
1679.00000    0.13789
1679.50000    0.11295
1680.00000    0.08826
1680.50000    0.06408
1681.00000    0.04061
1681.50000    0.01804
1682.00000   -0.00352
1682.50000   -0.02397
1683.00000   -0.04328
1683.50000   -0.06146
1684.00000   -0.07854
1684.50000   -0.09462
1685.00000   -0.10980
1685.50000   -0.12421
1686.00000   -0.13801
1686.50000   -0.15133
1687.00000   -0.16433
1687.50000   -0.17714
1688.00000   -0.18988
1688.50000   -0.20261
1689.00000   -0.21540
1689.50000   -0.22823
1690.00000   -0.24107
1690.50000   -0.25383
1691.00000   -0.26636
1691.50000   -0.27847
1692.00000   -0.28994
1692.50000   -0.30051
1693.00000   -0.30986
1693.50000   -0.31770
1694.00000   -0.32370
1694.50000   -0.32754
1695.00000   -0.32892
1695.50000   -0.32756
1696.00000   -0.32324
1696.50000   -0.31578
1697.00000   -0.30507
1697.50000   -0.29108
1698.00000   -0.27385
1698.50000   -0.25351
1699.00000   -0.23028
1699.50000   -0.20446
1700.00000   -0.17643
1700.50000   -0.14665
1701.00000   -0.11561
1701.50000   -0.08389
1702.00000   -0.05206
1702.50000   -0.02074
1703.00000    0.00948
1703.50000    0.03801
1704.00000    0.06432
1704.50000    0.08792
1705.00000    0.10840
1705.50000    0.12543
1706.00000    0.13878
1706.50000    0.14832
1707.00000    0.15403
1707.50000    0.15598
1708.00000    0.15436
1708.50000    0.14943
1709.00000    0.14156
1709.50000    0.13114
1710.00000    0.11866
1710.50000    0.10459
1711.00000    0.08943
1711.50000    0.07368
1712.00000    0.05777
1712.50000    0.04214
1713.00000    0.02711
1713.50000    0.01298
1714.00000   -0.00005
1714.50000   -0.01184
1715.00000   -0.02232
1715.50000   -0.03149
1716.00000   -0.03941
1716.50000   -0.04616
1717.00000   -0.05187
1717.50000   -0.05667
1718.00000   -0.06070
1718.50000   -0.06408
1719.00000   -0.06692
1719.50000   -0.06930
1720.00000   -0.07126
1720.50000   -0.07282
1721.00000   -0.07396
1721.50000   -0.07463
1722.00000   -0.07479
1722.50000   -0.07438
1723.00000   -0.07333
1723.50000   -0.07160
1724.00000   -0.06917
1724.50000   -0.06605
1725.00000   -0.06228
1725.50000   -0.05791
1726.00000   -0.05307
1726.50000   -0.04785
1727.00000   -0.04240
1727.50000   -0.03685
1728.00000   -0.03131
1728.50000   -0.02589
1729.00000   -0.02064
1729.50000   -0.01559
1730.00000   -0.01070
1730.50000   -0.00590
1731.00000   -0.00107
1731.50000    0.00397
1732.00000    0.00942
1732.50000    0.01547
1733.00000    0.02235
1733.50000    0.03022
1734.00000    0.03924
1734.50000    0.04949
1735.00000    0.06095
1735.50000    0.07354
1736.00000    0.08706
1736.50000    0.10122
1737.00000    0.11561
1737.50000    0.12976
1738.00000    0.14310
1738.50000    0.15502
1739.00000    0.16490
1739.50000    0.17212
1740.00000    0.17609
1740.50000    0.17633
1741.00000    0.17245
1741.50000    0.16418
1742.00000    0.15141
1742.50000    0.13420
1743.00000    0.11278
1743.50000    0.08754
1744.00000    0.05903
1744.50000    0.02796
1745.00000   -0.00486
1745.50000   -0.03852
1746.00000   -0.07208
1746.50000   -0.10455
1747.00000   -0.13498
1747.50000   -0.16247
1748.00000   -0.18622
1748.50000   -0.20555
1749.00000   -0.21991
1749.50000   -0.22893
1750.00000   -0.23240
1750.50000   -0.23032
1751.00000   -0.22283
1751.50000   -0.21025
1752.00000   -0.19303
1752.50000   -0.17177
1753.00000   -0.14713
1753.50000   -0.11986
1754.00000   -0.09074
1754.50000   -0.06054
1755.00000   -0.03003
1755.50000    0.00008
1756.00000    0.02914
1756.50000    0.05659
1757.00000    0.08196
1757.50000    0.10489
1758.00000    0.12513
1758.50000    0.14252
1759.00000    0.15700
1759.50000    0.16862
1760.00000    0.17748
1760.50000    0.18377
1761.00000    0.18773
1761.50000    0.18964
1762.00000    0.18978
1762.50000    0.18847
1763.00000    0.18602
1763.50000    0.18273
1764.00000    0.17888
1764.50000    0.17472
1765.00000    0.17047
1765.50000    0.16632
1766.00000    0.16240
1766.50000    0.15882
1767.00000    0.15564
1767.50000    0.15289
1768.00000    0.15056
1768.50000    0.14860
1769.00000    0.14692
1769.50000    0.14540
1770.00000    0.14392
1770.50000    0.14230
1771.00000    0.14036
1771.50000    0.13791
1772.00000    0.13473
1772.50000    0.13063
1773.00000    0.12539
1773.50000    0.11884
1774.00000    0.11080
1774.50000    0.10113
1775.00000    0.08972
1775.50000    0.07650
1776.00000    0.06146
1776.50000    0.04462
1777.00000    0.02607
1777.50000    0.00594
1778.00000   -0.01557
1778.50000   -0.03822
1779.00000   -0.06173
1779.50000   -0.08577
1780.00000   -0.10998
1780.50000   -0.13399
1781.00000   -0.15742
1781.50000   -0.17988
1782.00000   -0.20102
1782.50000   -0.22050
1783.00000   -0.23800
1783.50000   -0.25328
1784.00000   -0.26612
1784.50000   -0.27637
1785.00000   -0.28393
1785.50000   -0.28875
1786.00000   -0.29084
1786.50000   -0.29026
1787.00000   -0.28710
1787.50000   -0.28150
1788.00000   -0.27361
1788.50000   -0.26362
1789.00000   -0.25172
1789.50000   -0.23808
1790.00000   -0.22289
1790.50000   -0.20633
1791.00000   -0.18853
1791.50000   -0.16964
1792.00000   -0.14977
1792.50000   -0.12900
1793.00000   -0.10740
1793.50000   -0.08504
1794.00000   -0.06196
1794.50000   -0.03820
1795.00000   -0.01380
1795.50000    0.01118
1796.00000    0.03669
1796.50000    0.06264
1797.00000    0.08893
1797.50000    0.11542
1798.00000    0.14195
1798.50000    0.16835
1799.00000    0.19439
1799.50000    0.21983
1800.00000    0.24442
1800.50000    0.26789
1801.00000    0.28993
1801.50000    0.31027
1802.00000    0.32863
1802.50000    0.34472
1803.00000    0.35829
1803.50000    0.36912
1804.00000    0.37699
1804.50000    0.38176
1805.00000    0.38329
1805.50000    0.38152
1806.00000    0.37642
1806.50000    0.36801
1807.00000    0.35636
1807.50000    0.34159
1808.00000    0.32388
1808.50000    0.30341
1809.00000    0.28043
1809.50000    0.25521
1810.00000    0.22805
1810.50000    0.19925
1811.00000    0.16914
1811.50000    0.13803
1812.00000    0.10624
1812.50000    0.07408
1813.00000    0.04183
1813.50000    0.00977
1814.00000   -0.02187
1814.50000   -0.05286
1815.00000   -0.08301
1815.50000   -0.11217
1816.00000   -0.14019
1816.50000   -0.16695
1817.00000   -0.19234
1817.50000   -0.21629
1818.00000   -0.23870
1818.50000   -0.25950
1819.00000   -0.27861
1819.50000   -0.29595
1820.00000   -0.31141
1820.50000   -0.32491
1821.00000   -0.33634
1821.50000   -0.34558
1822.00000   -0.35252
1822.50000   -0.35705
1823.00000   -0.35907
1823.50000   -0.35851
1824.00000   -0.35532
1824.50000   -0.34948
1825.00000   -0.34102
1825.50000   -0.33003
1826.00000   -0.31664
1826.50000   -0.30103
1827.00000   -0.28346
1827.50000   -0.26421
1828.00000   -0.24361
1828.50000   -0.22201
1829.00000   -0.19978
1829.50000   -0.17729
1830.00000   -0.15486
1830.50000   -0.13279
1831.00000   -0.11132
1831.50000   -0.09059
1832.00000   -0.07068
1832.50000   -0.05154
1833.00000   -0.03304
1833.50000   -0.01495
1834.00000    0.00309
1834.50000    0.02151
1835.00000    0.04079
1835.50000    0.06148
1836.00000    0.08417
1836.50000    0.10942
1837.00000    0.13777
1837.50000    0.16970
1838.00000    0.20561
1838.50000    0.24578
1839.00000    0.29035
1839.50000    0.33933
1840.00000    0.39258
1840.50000    0.44978
1841.00000    0.51047
1841.50000    0.57404
1842.00000    0.63978
1842.50000    0.70684
1843.00000    0.77432
1843.50000    0.84128
1844.00000    0.90672
1844.50000    0.96968
1845.00000    1.02924
1845.50000    1.08451
1846.00000    1.13470
1846.50000    1.17910
1847.00000    1.21710
1847.50000    1.24822
1848.00000    1.27207
1848.50000    1.28838
1849.00000    1.29701
1849.50000    1.29789
1850.00000    1.29107
1850.50000    1.27668
1851.00000    1.25494
1851.50000    1.22614
1852.00000    1.19064
1852.50000    1.14887
1853.00000    1.10131
1853.50000    1.04850
1854.00000    0.99105
1854.50000    0.92960
1855.00000    0.86486
1855.50000    0.79757
1856.00000    0.72851
1856.50000    0.65849
1857.00000    0.58835
1857.50000    0.51891
1858.00000    0.45101
1858.50000    0.38546
1859.00000    0.32301
1859.50000    0.26436
1860.00000    0.21015
1860.50000    0.16091
1861.00000    0.11706
1861.50000    0.07891
1862.00000    0.04666
1862.50000    0.02039
1863.00000    0.00003
1863.50000   -0.01458
1864.00000   -0.02372
1864.50000   -0.02774
1865.00000   -0.02711
1865.50000   -0.02233
1866.00000   -0.01397
1866.50000   -0.00261
1867.00000    0.01115
1867.50000    0.02669
1868.00000    0.04343
1868.50000    0.06081
1869.00000    0.07829
1869.50000    0.09538
1870.00000    0.11164
1870.50000    0.12665
1871.00000    0.14004
1871.50000    0.15150
1872.00000    0.16075
1872.50000    0.16753
1873.00000    0.17163
1873.50000    0.17289
1874.00000    0.17116
1874.50000    0.16633
1875.00000    0.15835
1875.50000    0.14718
1876.00000    0.13286
1876.50000    0.11544
1877.00000    0.09504
1877.50000    0.07184
1878.00000    0.04606
1878.50000    0.01797
1879.00000   -0.01210
1879.50000   -0.04380
1880.00000   -0.07671
1880.50000   -0.11041
1881.00000   -0.14445
1881.50000   -0.17839
1882.00000   -0.21176
1882.50000   -0.24412
1883.00000   -0.27505
1883.50000   -0.30417
1884.00000   -0.33111
1884.50000   -0.35556
1885.00000   -0.37722
1885.50000   -0.39587
1886.00000   -0.41130
1886.50000   -0.42334
1887.00000   -0.43186
1887.50000   -0.43676
1888.00000   -0.43795
1888.50000   -0.43536
1889.00000   -0.42897
1889.50000   -0.41874
1890.00000   -0.40468
1890.50000   -0.38680
1891.00000   -0.36517
1891.50000   -0.33986
1892.00000   -0.31102
1892.50000   -0.27882
1893.00000   -0.24351
1893.50000   -0.20537
1894.00000   -0.16477
1894.50000   -0.12214
1895.00000   -0.07796
1895.50000   -0.03277
1896.00000    0.01285
1896.50000    0.05829
1897.00000    0.10293
1897.50000    0.14615
1898.00000    0.18735
1898.50000    0.22599
1899.00000    0.26157
1899.50000    0.29369
1900.00000    0.32203
1900.50000    0.34639
1901.00000    0.36666
1901.50000    0.38288
1902.00000    0.39519
1902.50000    0.40384
1903.00000    0.40920
1903.50000    0.41173
1904.00000    0.41195
1904.50000    0.41047
1905.00000    0.40792
1905.50000    0.40496
1906.00000    0.40225
1906.50000    0.40043
1907.00000    0.40012
1907.50000    0.40185
1908.00000    0.40611
1908.50000    0.41331
1909.00000    0.42373
1909.50000    0.43758
1910.00000    0.45495
1910.50000    0.47582
1911.00000    0.50003
1911.50000    0.52733
1912.00000    0.55737
1912.50000    0.58968
1913.00000    0.62371
1913.50000    0.65882
1914.00000    0.69433
1914.50000    0.72951
1915.00000    0.76362
1915.50000    0.79590
1916.00000    0.82566
1916.50000    0.85222
1917.00000    0.87502
1917.50000    0.89357
1918.00000    0.90751
1918.50000    0.91661
1919.00000    0.92079
1919.50000    0.92008
1920.00000    0.91468
1920.50000    0.90490
1921.00000    0.89117
1921.50000    0.87398
1922.00000    0.85391
1922.50000    0.83154
1923.00000    0.80747
1923.50000    0.78223
1924.00000    0.75630
1924.50000    0.73007
1925.00000    0.70382
1925.50000    0.67769
1926.00000    0.65169
1926.50000    0.62572
1927.00000    0.59957
1927.50000    0.57292
1928.00000    0.54542
1928.50000    0.51667
1929.00000    0.48627
1929.50000    0.45388
1930.00000    0.41924
1930.50000    0.38216
1931.00000    0.34260
1931.50000    0.30064
1932.00000    0.25648
1932.50000    0.21048
1933.00000    0.16307
1933.50000    0.11482
1934.00000    0.06633
1934.50000    0.01823
1935.00000   -0.02882
1935.50000   -0.07423
1936.00000   -0.11743
1936.50000   -0.15798
1937.00000   -0.19548
1937.50000   -0.22970
1938.00000   -0.26045
1938.50000   -0.28770
1939.00000   -0.31147
1939.50000   -0.33184
1940.00000   -0.34897
1940.50000   -0.36301
1941.00000   -0.37409
1941.50000   -0.38235
1942.00000   -0.38787
1942.50000   -0.39067
1943.00000   -0.39072
1943.50000   -0.38795
1944.00000   -0.38223
1944.50000   -0.37343
1945.00000   -0.36142
1945.50000   -0.34609
1946.00000   -0.32740
1946.50000   -0.30536
1947.00000   -0.28012
1947.50000   -0.25191
1948.00000   -0.22111
1948.50000   -0.18820
1949.00000   -0.15375
1949.50000   -0.11845
1950.00000   -0.08302
1950.50000   -0.04820
1951.00000   -0.01474
1951.50000    0.01668
1952.00000    0.04544
1952.50000    0.07106
1953.00000    0.09317
1953.50000    0.11156
1954.00000    0.12619
1954.50000    0.13717
1955.00000    0.14475
1955.50000    0.14933
1956.00000    0.15138
1956.50000    0.15147
1957.00000    0.15020
1957.50000    0.14818
1958.00000    0.14597
1958.50000    0.14411
1959.00000    0.14303
1959.50000    0.14306
1960.00000    0.14443
1960.50000    0.14725
1961.00000    0.15151
1961.50000    0.15710
1962.00000    0.16381
1962.50000    0.17136
1963.00000    0.17941
1963.50000    0.18759
1964.00000    0.19551
1964.50000    0.20278
1965.00000    0.20902
1965.50000    0.21389
1966.00000    0.21706
1966.50000    0.21827
1967.00000    0.21728
1967.50000    0.21389
1968.00000    0.20793
1968.50000    0.19929
1969.00000    0.18787
1969.50000    0.17360
1970.00000    0.15648
1970.50000    0.13651
1971.00000    0.11378
1971.50000    0.08839
1972.00000    0.06055
1972.50000    0.03052
1973.00000   -0.00136
1973.50000   -0.03464
1974.00000   -0.06881
1974.50000   -0.10324
1975.00000   -0.13724
1975.50000   -0.17005
1976.00000   -0.20085
1976.50000   -0.22881
1977.00000   -0.25306
1977.50000   -0.27279
1978.00000   -0.28722
1978.50000   -0.29567
1979.00000   -0.29755
1979.50000   -0.29242
1980.00000   -0.28001
1980.50000   -0.26018
1981.00000   -0.23300
1981.50000   -0.19870
1982.00000   -0.15771
1982.50000   -0.11056
1983.00000   -0.05798
1983.50000   -0.00074
1984.00000    0.06024
1984.50000    0.12406
1985.00000    0.18976
1985.50000    0.25641
1986.00000    0.32315
1986.50000    0.38915
1987.00000    0.45371
1987.50000    0.51621
1988.00000    0.57613
1988.50000    0.63307
1989.00000    0.68673
1989.50000    0.73687
1990.00000    0.78334
1990.50000    0.82601
1991.00000    0.86479
1991.50000    0.89960
1992.00000    0.93032
1992.50000    0.95682
1993.00000    0.97895
1993.50000    0.99651
1994.00000    1.00927
1994.50000    1.01702
1995.00000    1.01949
1995.50000    1.01650
1996.00000    1.00785
1996.50000    0.99347
1997.00000    0.97333
1997.50000    0.94755
1998.00000    0.91638
1998.50000    0.88018
1999.00000    0.83949
1999.50000    0.79497
2000.00000    0.74741
2000.50000    0.69772
2001.00000    0.64689
2001.50000    0.59594
2002.00000    0.54591
2002.50000    0.49782
2003.00000    0.45261
2003.50000    0.41110
2004.00000    0.37399
2004.50000    0.34178
2005.00000    0.31477
2005.50000    0.29307
2006.00000    0.27656
2006.50000    0.26489
2007.00000    0.25754
2007.50000    0.25379
2008.00000    0.25280
2008.50000    0.25358
2009.00000    0.25511
2009.50000    0.25633
2010.00000    0.25619
2010.50000    0.25370
2011.00000    0.24799
2011.50000    0.23829
2012.00000    0.22401
2012.50000    0.20471
2013.00000    0.18017
2013.50000    0.15036
2014.00000    0.11542
2014.50000    0.07572
2015.00000    0.03175
2015.50000   -0.01581
2016.00000   -0.06615
2016.50000   -0.11838
2017.00000   -0.17149
2017.50000   -0.22447
2018.00000   -0.27624
2018.50000   -0.32577
2019.00000   -0.37204
2019.50000   -0.41410
2020.00000   -0.45108
2020.50000   -0.48224
2021.00000   -0.50694
2021.50000   -0.52470
2022.00000   -0.53518
2022.50000   -0.53823
2023.00000   -0.53385
2023.50000   -0.52220
2024.00000   -0.50364
2024.50000   -0.47865
2025.00000   -0.44789
2025.50000   -0.41213
2026.00000   -0.37226
2026.50000   -0.32926
2027.00000   -0.28415
2027.50000   -0.23802
2028.00000   -0.19195
2028.50000   -0.14699
2029.00000   -0.10414
2029.50000   -0.06434
2030.00000   -0.02840
2030.50000    0.00299
2031.00000    0.02930
2031.50000    0.05013
2032.00000    0.06530
2032.50000    0.07476
2033.00000    0.07869
2033.50000    0.07739
2034.00000    0.07135
2034.50000    0.06122
2035.00000    0.04774
2035.50000    0.03177
2036.00000    0.01425
2036.50000   -0.00385
2037.00000   -0.02153
2037.50000   -0.03783
2038.00000   -0.05180
2038.50000   -0.06258
2039.00000   -0.06941
2039.50000   -0.07164
2040.00000   -0.06875
2040.50000   -0.06037
2041.00000   -0.04632
2041.50000   -0.02653
2042.00000   -0.00112
2042.50000    0.02963
2043.00000    0.06532
2043.50000    0.10539
2044.00000    0.14919
2044.50000    0.19595
2045.00000    0.24485
2045.50000    0.29500
2046.00000    0.34549
2046.50000    0.39539
2047.00000    0.44379
2047.50000    0.48979
2048.00000    0.53257
2048.50000    0.57136
2049.00000    0.60545
2049.50000    0.63423
2050.00000    0.65721
2050.50000    0.67397
2051.00000    0.68421
2051.50000    0.68775
2052.00000    0.68450
2052.50000    0.67453
2053.00000    0.65798
2053.50000    0.63511
2054.00000    0.60631
2054.50000    0.57203
2055.00000    0.53286
2055.50000    0.48944
2056.00000    0.44249
2056.50000    0.39280
2057.00000    0.34118
2057.50000    0.28849
2058.00000    0.23559
2058.50000    0.18333
2059.00000    0.13252
2059.50000    0.08392
2060.00000    0.03824
2060.50000   -0.00390
2061.00000   -0.04199
2061.50000   -0.07560
2062.00000   -0.10442
2062.50000   -0.12826
2063.00000   -0.14702
2063.50000   -0.16074
2064.00000   -0.16952
2064.50000   -0.17356
2065.00000   -0.17313
2065.50000   -0.16857
2066.00000   -0.16024
2066.50000   -0.14854
2067.00000   -0.13388
2067.50000   -0.11666
2068.00000   -0.09730
2068.50000   -0.07617
2069.00000   -0.05364
2069.50000   -0.03004
2070.00000   -0.00571
2070.50000    0.01909
2071.00000    0.04406
2071.50000    0.06896
2072.00000    0.09355
2072.50000    0.11758
2073.00000    0.14083
2073.50000    0.16306
2074.00000    0.18407
2074.50000    0.20362
2075.00000    0.22150
2075.50000    0.23750
2076.00000    0.25142
2076.50000    0.26308
2077.00000    0.27233
2077.50000    0.27903
2078.00000    0.28309
2078.50000    0.28446
2079.00000    0.28311
2079.50000    0.27906
2080.00000    0.27240
2080.50000    0.26322
2081.00000    0.25169
2081.50000    0.23800
2082.00000    0.22237
2082.50000    0.20505
2083.00000    0.18632
2083.50000    0.16647
2084.00000    0.14579
2084.50000    0.12458
2085.00000    0.10311
2085.50000    0.08166
2086.00000    0.06046
2086.50000    0.03975
2087.00000    0.01970
2087.50000    0.00046
2088.00000   -0.01785
2088.50000   -0.03516
2089.00000   -0.05142
2089.50000   -0.06660
2090.00000   -0.08072
2090.50000   -0.09379
2091.00000   -0.10585
2091.50000   -0.11691
2092.00000   -0.12700
2092.50000   -0.13611
2093.00000   -0.14423
2093.50000   -0.15131
2094.00000   -0.15727
2094.50000   -0.16200
2095.00000   -0.16537
2095.50000   -0.16723
2096.00000   -0.16742
2096.50000   -0.16577
2097.00000   -0.16214
2097.50000   -0.15641
2098.00000   -0.14848
2098.50000   -0.13833
2099.00000   -0.12599
2099.50000   -0.11156
2100.00000   -0.09520
2100.50000   -0.07716
2101.00000   -0.05774
2101.50000   -0.03733
2102.00000   -0.01633
2102.50000    0.00479
2103.00000    0.02559
2103.50000    0.04558
2104.00000    0.06434
2104.50000    0.08147
2105.00000    0.09662
2105.50000    0.10951
2106.00000    0.11994
2106.50000    0.12777
2107.00000    0.13297
2107.50000    0.13554
2108.00000    0.13556
2108.50000    0.13314
2109.00000    0.12845
2109.50000    0.12164
2110.00000    0.11288
2110.50000    0.10233
2111.00000    0.09011
2111.50000    0.07633
2112.00000    0.06107
2112.50000    0.04437
2113.00000    0.02628
2113.50000    0.00681
2114.00000   -0.01400
2114.50000   -0.03609
2115.00000   -0.05936
2115.50000   -0.08366
2116.00000   -0.10877
2116.50000   -0.13441
2117.00000   -0.16022
2117.50000   -0.18579
2118.00000   -0.21063
2118.50000   -0.23421
2119.00000   -0.25598
2119.50000   -0.27538
2120.00000   -0.29186
2120.50000   -0.30491
2121.00000   -0.31408
2121.50000   -0.31900
2122.00000   -0.31940
2122.50000   -0.31511
2123.00000   -0.30607
2123.50000   -0.29234
2124.00000   -0.27407
2124.50000   -0.25152
2125.00000   -0.22505
2125.50000   -0.19504
2126.00000   -0.16198
2126.50000   -0.12633
2127.00000   -0.08859
2127.50000   -0.04925
2128.00000   -0.00878
2128.50000    0.03242
2129.00000    0.07394
2129.50000    0.11548
2130.00000    0.15675
2130.50000    0.19752
2131.00000    0.23764
2131.50000    0.27696
2132.00000    0.31540
2132.50000    0.35288
2133.00000    0.38938
2133.50000    0.42486
2134.00000    0.45931
2134.50000    0.49272
2135.00000    0.52508
2135.50000    0.55636
2136.00000    0.58656
2136.50000    0.61565
2137.00000    0.64359
2137.50000    0.67036
2138.00000    0.69588
2138.50000    0.72012
2139.00000    0.74298
2139.50000    0.76439
2140.00000    0.78425
2140.50000    0.80244
2141.00000    0.81883
2141.50000    0.83328
2142.00000    0.84563
2142.50000    0.85572
2143.00000    0.86338
2143.50000    0.86844
2144.00000    0.87072
2144.50000    0.87008
2145.00000    0.86638
2145.50000    0.85951
2146.00000    0.84937
2146.50000    0.83594
2147.00000    0.81920
2147.50000    0.79920
2148.00000    0.77600
2148.50000    0.74976
2149.00000    0.72062
2149.50000    0.68882
2150.00000    0.65459
2150.50000    0.61822
2151.00000    0.58001
2151.50000    0.54030
2152.00000    0.49942
2152.50000    0.45773
2153.00000    0.41559
2153.50000    0.37336
2154.00000    0.33139
2154.50000    0.29002
2155.00000    0.24959
2155.50000    0.21043
2156.00000    0.17285
2156.50000    0.13717
2157.00000    0.10368
2157.50000    0.07269
2158.00000    0.04448
2158.50000    0.01937
2159.00000   -0.00236
2159.50000   -0.02039
2160.00000   -0.03440
2160.50000   -0.04407
2161.00000   -0.04909
2161.50000   -0.04912
2162.00000   -0.04385
2162.50000   -0.03298
2163.00000   -0.01625
2163.50000    0.00655
2164.00000    0.03557
2164.50000    0.07089
2165.00000    0.11245
2165.50000    0.16011
2166.00000    0.21356
2166.50000    0.27235
2167.00000    0.33589
2167.50000    0.40339
2168.00000    0.47393
2168.50000    0.54642
2169.00000    0.61965
2169.50000    0.69230
2170.00000    0.76297
2170.50000    0.83023
2171.00000    0.89265
2171.50000    0.94887
2172.00000    0.99760
2172.50000    1.03770
2173.00000    1.06822
2173.50000    1.08841
2174.00000    1.09779
2174.50000    1.09611
2175.00000    1.08341
2175.50000    1.06000
2176.00000    1.02642
2176.50000    0.98348
2177.00000    0.93215
2177.50000    0.87358
2178.00000    0.80905
2178.50000    0.73988
2179.00000    0.66743
2179.50000    0.59306
2180.00000    0.51802
2180.50000    0.44351
2181.00000    0.37059
2181.50000    0.30015
2182.00000    0.23296
2182.50000    0.16960
2183.00000    0.11050
2183.50000    0.05593
2184.00000    0.00605
2184.50000   -0.03912
2185.00000   -0.07966
2185.50000   -0.11572
2186.00000   -0.14751
2186.50000   -0.17526
2187.00000   -0.19923
2187.50000   -0.21968
2188.00000   -0.23688
2188.50000   -0.25106
2189.00000   -0.26242
2189.50000   -0.27118
2190.00000   -0.27748
2190.50000   -0.28149
2191.00000   -0.28331
2191.50000   -0.28307
2192.00000   -0.28087
2192.50000   -0.27680
2193.00000   -0.27095
2193.50000   -0.26342
2194.00000   -0.25432
2194.50000   -0.24376
2195.00000   -0.23186
2195.50000   -0.21874
2196.00000   -0.20455
2196.50000   -0.18943
2197.00000   -0.17353
2197.50000   -0.15702
2198.00000   -0.14003
2198.50000   -0.12273
2199.00000   -0.10526
2199.50000   -0.08776
2200.00000   -0.07036
2200.50000   -0.05318
2201.00000   -0.03633
2201.50000   -0.01990
2202.00000   -0.00398
2202.50000    0.01134
2203.00000    0.02599
2203.50000    0.03988
2204.00000    0.05294
2204.50000    0.06507
2205.00000    0.07616
2205.50000    0.08610
2206.00000    0.09476
2206.50000    0.10199
2207.00000    0.10765
2207.50000    0.11156
2208.00000    0.11358
2208.50000    0.11355
2209.00000    0.11135
2209.50000    0.10686
2210.00000    0.10002
2210.50000    0.09082
2211.00000    0.07927
2211.50000    0.06547
2212.00000    0.04958
2212.50000    0.03180
2213.00000    0.01241
2213.50000   -0.00827
2214.00000   -0.02985
2214.50000   -0.05194
2215.00000   -0.07409
2215.50000   -0.09586
2216.00000   -0.11683
2216.50000   -0.13656
2217.00000   -0.15467
2217.50000   -0.17081
2218.00000   -0.18469
2218.50000   -0.19606
2219.00000   -0.20476
2219.50000   -0.21065
2220.00000   -0.21369
2220.50000   -0.21388
2221.00000   -0.21125
2221.50000   -0.20590
2222.00000   -0.19796
2222.50000   -0.18756
2223.00000   -0.17488
2223.50000   -0.16008
2224.00000   -0.14332
2224.50000   -0.12477
2225.00000   -0.10458
2225.50000   -0.08287
2226.00000   -0.05974
2226.50000   -0.03528
2227.00000   -0.00955
2227.50000    0.01742
2228.00000    0.04559
2228.50000    0.07498
2229.00000    0.10556
2229.50000    0.13734
2230.00000    0.17030
2230.50000    0.20440
2231.00000    0.23958
2231.50000    0.27573
2232.00000    0.31269
2232.50000    0.35024
2233.00000    0.38812
2233.50000    0.42597
2234.00000    0.46341
2234.50000    0.49997
2235.00000    0.53515
2235.50000    0.56841
2236.00000    0.59920
2236.50000    0.62698
2237.00000    0.65121
2237.50000    0.67141
2238.00000    0.68717
2238.50000    0.69817
2239.00000    0.70418
2239.50000    0.70510
2240.00000    0.70093
2240.50000    0.69182
2241.00000    0.67802
2241.50000    0.65988
2242.00000    0.63786
2242.50000    0.61248
2243.00000    0.58430
2243.50000    0.55390
2244.00000    0.52185
2244.50000    0.48869
2245.00000    0.45490
2245.50000    0.42090
2246.00000    0.38701
2246.50000    0.35349
2247.00000    0.32048
2247.50000    0.28808
2248.00000    0.25629
2248.50000    0.22508
2249.00000    0.19439
2249.50000    0.16415
2250.00000    0.13431
2250.50000    0.10484
2251.00000    0.07576
2251.50000    0.04716
2252.00000    0.01917
2252.50000   -0.00802
2253.00000   -0.03417
2253.50000   -0.05898
2254.00000   -0.08215
2254.50000   -0.10337
2255.00000   -0.12236
2255.50000   -0.13884
2256.00000   -0.15262
2256.50000   -0.16355
2257.00000   -0.17157
2257.50000   -0.17666
2258.00000   -0.17892
2258.50000   -0.17849
2259.00000   -0.17558
2259.50000   -0.17041
2260.00000   -0.16324
2260.50000   -0.15434
2261.00000   -0.14394
2261.50000   -0.13225
2262.00000   -0.11941
2262.50000   -0.10554
2263.00000   -0.09067
2263.50000   -0.07480
2264.00000   -0.05786
2264.50000   -0.03978
2265.00000   -0.02045
2265.50000    0.00021
2266.00000    0.02228
2266.50000    0.04575
2267.00000    0.07055
2267.50000    0.09655
2268.00000    0.12348
2268.50000    0.15098
2269.00000    0.17862
2269.50000    0.20583
2270.00000    0.23201
2270.50000    0.25649
2271.00000    0.27856
2271.50000    0.29757
2272.00000    0.31287
2272.50000    0.32392
2273.00000    0.33027
2273.50000    0.33163
2274.00000    0.32785
2274.50000    0.31898
2275.00000    0.30523
2275.50000    0.28700
2276.00000    0.26487
2276.50000    0.23955
2277.00000    0.21185
2277.50000    0.18270
2278.00000    0.15303
2278.50000    0.12378
2279.00000    0.09584
2279.50000    0.07000
2280.00000    0.04694
2280.50000    0.02715
2281.00000    0.01095
2281.50000   -0.00151
2282.00000   -0.01033
2282.50000   -0.01577
2283.00000   -0.01828
2283.50000   -0.01846
2284.00000   -0.01701
2284.50000   -0.01474
2285.00000   -0.01246
2285.50000   -0.01100
2286.00000   -0.01111
2286.50000   -0.01347
2287.00000   -0.01862
2287.50000   -0.02694
2288.00000   -0.03865
2288.50000   -0.05377
2289.00000   -0.07216
2289.50000   -0.09349
2290.00000   -0.11728
2290.50000   -0.14293
2291.00000   -0.16972
2291.50000   -0.19690
2292.00000   -0.22367
2292.50000   -0.24924
2293.00000   -0.27288
2293.50000   -0.29393
2294.00000   -0.31181
2294.50000   -0.32610
2295.00000   -0.33647
2295.50000   -0.34275
2296.00000   -0.34490
2296.50000   -0.34301
2297.00000   -0.33728
2297.50000   -0.32802
2298.00000   -0.31562
2298.50000   -0.30052
2299.00000   -0.28321
2299.50000   -0.26421
2300.00000   -0.24402
2300.50000   -0.22315
2301.00000   -0.20206
2301.50000   -0.18120
2302.00000   -0.16095
2302.50000   -0.14165
2303.00000   -0.12359
2303.50000   -0.10700
2304.00000   -0.09206
2304.50000   -0.07890
2305.00000   -0.06757
2305.50000   -0.05811
2306.00000   -0.05047
2306.50000   -0.04457
2307.00000   -0.04026
2307.50000   -0.03737
2308.00000   -0.03566
2308.50000   -0.03485
2309.00000   -0.03464
2309.50000   -0.03466
2310.00000   -0.03456
2310.50000   -0.03394
2311.00000   -0.03242
2311.50000   -0.02962
2312.00000   -0.02520
2312.50000   -0.01886
2313.00000   -0.01035
2313.50000    0.00050
2314.00000    0.01377
2314.50000    0.02945
2315.00000    0.04743
2315.50000    0.06748
2316.00000    0.08928
2316.50000    0.11241
2317.00000    0.13636
2317.50000    0.16055
2318.00000    0.18433
2318.50000    0.20706
2319.00000    0.22806
2319.50000    0.24667
2320.00000    0.26230
2320.50000    0.27441
2321.00000    0.28256
2321.50000    0.28641
2322.00000    0.28576
2322.50000    0.28053
2323.00000    0.27077
2323.50000    0.25670
2324.00000    0.23863
2324.50000    0.21701
2325.00000    0.19238
2325.50000    0.16537
2326.00000    0.13668
2326.50000    0.10702
2327.00000    0.07714
2327.50000    0.04777
2328.00000    0.01962
2328.50000   -0.00666
2329.00000   -0.03048
2329.50000   -0.05131
2330.00000   -0.06872
2330.50000   -0.08238
2331.00000   -0.09203
2331.50000   -0.09753
2332.00000   -0.09881
2332.50000   -0.09591
2333.00000   -0.08894
2333.50000   -0.07811
2334.00000   -0.06368
2334.50000   -0.04600
2335.00000   -0.02545
2335.50000   -0.00251
2336.00000    0.02234
2336.50000    0.04855
2337.00000    0.07555
2337.50000    0.10277
2338.00000    0.12961
2338.50000    0.15548
2339.00000    0.17982
2339.50000    0.20207
2340.00000    0.22176
2340.50000    0.23843
2341.00000    0.25171
2341.50000    0.26131
2342.00000    0.26700
2342.50000    0.26865
2343.00000    0.26621
2343.50000    0.25973
2344.00000    0.24930
2344.50000    0.23511
2345.00000    0.21739
2345.50000    0.19645
2346.00000    0.17259
2346.50000    0.14616
2347.00000    0.11753
2347.50000    0.08707
2348.00000    0.05514
2348.50000    0.02211
2349.00000   -0.01165
2349.50000   -0.04579
2350.00000   -0.07995
2350.50000   -0.11379
2351.00000   -0.14695
2351.50000   -0.17905
2352.00000   -0.20975
2352.50000   -0.23867
2353.00000   -0.26545
2353.50000   -0.28973
2354.00000   -0.31117
2354.50000   -0.32946
2355.00000   -0.34434
2355.50000   -0.35559
2356.00000   -0.36306
2356.50000   -0.36668
2357.00000   -0.36643
2357.50000   -0.36241
2358.00000   -0.35477
2358.50000   -0.34376
2359.00000   -0.32968
2359.50000   -0.31288
2360.00000   -0.29375
2360.50000   -0.27270
2361.00000   -0.25014
2361.50000   -0.22644
2362.00000   -0.20199
2362.50000   -0.17707
2363.00000   -0.15197
2363.50000   -0.12690
2364.00000   -0.10200
2364.50000   -0.07739
2365.00000   -0.05314
2365.50000   -0.02929
2366.00000   -0.00586
2366.50000    0.01714
2367.00000    0.03969
2367.50000    0.06176
2368.00000    0.08333
2368.50000    0.10435
2369.00000    0.12478
2369.50000    0.14455
2370.00000    0.16364
2370.50000    0.18203
2371.00000    0.19973
2371.50000    0.21682
2372.00000    0.23339
2372.50000    0.24960
2373.00000    0.26567
2373.50000    0.28184
2374.00000    0.29839
2374.50000    0.31559
2375.00000    0.33372
2375.50000    0.35302
2376.00000    0.37365
2376.50000    0.39571
2377.00000    0.41919
2377.50000    0.44397
2378.00000    0.46980
2378.50000    0.49632
2379.00000    0.52305
2379.50000    0.54940
2380.00000    0.57473
2380.50000    0.59832
2381.00000    0.61946
2381.50000    0.63742
2382.00000    0.65154
2382.50000    0.66123
2383.00000    0.66600
2383.50000    0.66549
2384.00000    0.65945
2384.50000    0.64779
2385.00000    0.63055
2385.50000    0.60791
2386.00000    0.58014
2386.50000    0.54762
2387.00000    0.51080
2387.50000    0.47018
2388.00000    0.42627
2388.50000    0.37961
2389.00000    0.33071
2389.50000    0.28007
2390.00000    0.22814
2390.50000    0.17536
2391.00000    0.12215
2391.50000    0.06890
2392.00000    0.01600
2392.50000   -0.03614
2393.00000   -0.08709
2393.50000   -0.13636
2394.00000   -0.18346
2394.50000   -0.22778
2395.00000   -0.26871
2395.50000   -0.30555
2396.00000   -0.33757
2396.50000   -0.36401
2397.00000   -0.38413
2397.50000   -0.39716
2398.00000   -0.40243
2398.50000   -0.39931
2399.00000   -0.38730
2399.50000   -0.36601
2400.00000   -0.33525
2400.50000   -0.29499
2401.00000   -0.24539
2401.50000   -0.18683
2402.00000   -0.11991
2402.50000   -0.04543
2403.00000    0.03560
2403.50000    0.12200
2404.00000    0.21242
2404.50000    0.30540
2405.00000    0.39937
2405.50000    0.49269
2406.00000    0.58373
2406.50000    0.67089
2407.00000    0.75260
2407.50000    0.82744
2408.00000    0.89412
2408.50000    0.95152
2409.00000    0.99872
2409.50000    1.03505
2410.00000    1.06007
2410.50000    1.07356
2411.00000    1.07558
2411.50000    1.06641
2412.00000    1.04653
2412.50000    1.01664
2413.00000    0.97759
2413.50000    0.93036
2414.00000    0.87604
2414.50000    0.81577
2415.00000    0.75074
2415.50000    0.68211
2416.00000    0.61101
2416.50000    0.53852
2417.00000    0.46561
2417.50000    0.39318
2418.00000    0.32201
2418.50000    0.25276
2419.00000    0.18600
2419.50000    0.12217
2420.00000    0.06164
2420.50000    0.00469
2421.00000   -0.04847
2421.50000   -0.09767
2422.00000   -0.14279
2422.50000   -0.18372
2423.00000   -0.22039
2423.50000   -0.25272
2424.00000   -0.28062
2424.50000   -0.30405
2425.00000   -0.32291
2425.50000   -0.33716
2426.00000   -0.34675
2426.50000   -0.35165
2427.00000   -0.35186
2427.50000   -0.34743
2428.00000   -0.33842
2428.50000   -0.32497
2429.00000   -0.30726
2429.50000   -0.28552
2430.00000   -0.26006
2430.50000   -0.23121
2431.00000   -0.19938
2431.50000   -0.16502
2432.00000   -0.12862
2432.50000   -0.09071
2433.00000   -0.05183
2433.50000   -0.01254
2434.00000    0.02658
2434.50000    0.06499
2435.00000    0.10215
2435.50000    0.13755
2436.00000    0.17075
2436.50000    0.20132
2437.00000    0.22895
2437.50000    0.25335
2438.00000    0.27433
2438.50000    0.29180
2439.00000    0.30572
2439.50000    0.31616
2440.00000    0.32325
2440.50000    0.32720
2441.00000    0.32829
2441.50000    0.32684
2442.00000    0.32321
2442.50000    0.31779
2443.00000    0.31096
2443.50000    0.30310
2444.00000    0.29459
2444.50000    0.28574
2445.00000    0.27683
2445.50000    0.26806
2446.00000    0.25959
2446.50000    0.25150
2447.00000    0.24380
2447.50000    0.23644
2448.00000    0.22929
2448.50000    0.22219
2449.00000    0.21493
2449.50000    0.20725
2450.00000    0.19890
2450.50000    0.18961
2451.00000    0.17910
2451.50000    0.16713
2452.00000    0.15348
2452.50000    0.13796
2453.00000    0.12044
2453.50000    0.10082
2454.00000    0.07909
2454.50000    0.05528
2455.00000    0.02948
2455.50000    0.00187
2456.00000   -0.02735
2456.50000   -0.05788
2457.00000   -0.08938
2457.50000   -0.12146
2458.00000   -0.15368
2458.50000   -0.18559
2459.00000   -0.21667
2459.50000   -0.24643
2460.00000   -0.27434
2460.50000   -0.29992
2461.00000   -0.32266
2461.50000   -0.34214
2462.00000   -0.35794
2462.50000   -0.36973
2463.00000   -0.37723
2463.50000   -0.38023
2464.00000   -0.37861
2464.50000   -0.37231
2465.00000   -0.36137
2465.50000   -0.34589
2466.00000   -0.32605
2466.50000   -0.30208
2467.00000   -0.27426
2467.50000   -0.24292
2468.00000   -0.20841
2468.50000   -0.17111
2469.00000   -0.13137
2469.50000   -0.08959
2470.00000   -0.04611
2470.50000   -0.00129
2471.00000    0.04455
2471.50000    0.09111
2472.00000    0.13809
2472.50000    0.18525
2473.00000    0.23230
2473.50000    0.27903
2474.00000    0.32517
2474.50000    0.37049
2475.00000    0.41472
2475.50000    0.45762
2476.00000    0.49889
2476.50000    0.53825
2477.00000    0.57538
2477.50000    0.60996
2478.00000    0.64167
2478.50000    0.67016
2479.00000    0.69510
2479.50000    0.71615
2480.00000    0.73299
2480.50000    0.74532
2481.00000    0.75288
2481.50000    0.75542
2482.00000    0.75275
2482.50000    0.74475
2483.00000    0.73132
2483.50000    0.71248
2484.00000    0.68829
2484.50000    0.65890
2485.00000    0.62455
2485.50000    0.58558
2486.00000    0.54242
2486.50000    0.49559
2487.00000    0.44570
2487.50000    0.39346
2488.00000    0.33965
2488.50000    0.28510
2489.00000    0.23071
2489.50000    0.17740
2490.00000    0.12611
2490.50000    0.07776
2491.00000    0.03321
2491.50000   -0.00670
2492.00000   -0.04126
2492.50000   -0.06986
2493.00000   -0.09199
2493.50000   -0.10733
2494.00000   -0.11568
2494.50000   -0.11702
2495.00000   -0.11149
2495.50000   -0.09937
2496.00000   -0.08108
2496.50000   -0.05717
2497.00000   -0.02827
2497.50000    0.00491
2498.00000    0.04161
2498.50000    0.08106
2499.00000    0.12249
2499.50000    0.16518
2500.00000    0.20846
2500.50000    0.25173
2501.00000    0.29445
2501.50000    0.33619
2502.00000    0.37661
2502.50000    0.41544
2503.00000    0.45247
2503.50000    0.48757
2504.00000    0.52065
2504.50000    0.55164
2505.00000    0.58050
2505.50000    0.60719
2506.00000    0.63163
2506.50000    0.65376
2507.00000    0.67345
2507.50000    0.69057
2508.00000    0.70493
2508.50000    0.71634
2509.00000    0.72457
2509.50000    0.72937
2510.00000    0.73048
2510.50000    0.72765
2511.00000    0.72064
2511.50000    0.70925
2512.00000    0.69328
2512.50000    0.67260
2513.00000    0.64713
2513.50000    0.61683
2514.00000    0.58176
2514.50000    0.54203
2515.00000    0.49785
2515.50000    0.44951
2516.00000    0.39739
2516.50000    0.34195
2517.00000    0.28377
2517.50000    0.22348
2518.00000    0.16181
2518.50000    0.09956
2519.00000    0.03757
2519.50000   -0.02327
2520.00000   -0.08205
2520.50000   -0.13788
2521.00000   -0.18990
2521.50000   -0.23730
2522.00000   -0.27935
2522.50000   -0.31544
2523.00000   -0.34509
2523.50000   -0.36795
2524.00000   -0.38384
2524.50000   -0.39274
2525.00000   -0.39478
2525.50000   -0.39023
2526.00000   -0.37952
2526.50000   -0.36316
2527.00000   -0.34176
2527.50000   -0.31598
2528.00000   -0.28651
2528.50000   -0.25403
2529.00000   -0.21919
2529.50000   -0.18257
2530.00000   -0.14469
2530.50000   -0.10597
2531.00000   -0.06674
2531.50000   -0.02722
2532.00000    0.01245
2532.50000    0.05221
2533.00000    0.09208
2533.50000    0.13210
2534.00000    0.17236
2534.50000    0.21295
2535.00000    0.25394
2535.50000    0.29539
2536.00000    0.33730
2536.50000    0.37963
2537.00000    0.42228
2537.50000    0.46512
2538.00000    0.50791
2538.50000    0.55041
2539.00000    0.59229
2539.50000    0.63322
2540.00000    0.67281
2540.50000    0.71064
2541.00000    0.74628
2541.50000    0.77930
2542.00000    0.80924
2542.50000    0.83564
2543.00000    0.85806
2543.50000    0.87606
2544.00000    0.88924
2544.50000    0.89721
2545.00000    0.89964
2545.50000    0.89625
2546.00000    0.88682
2546.50000    0.87122
2547.00000    0.84941
2547.50000    0.82147
2548.00000    0.78758
2548.50000    0.74804
2549.00000    0.70327
2549.50000    0.65380
2550.00000    0.60029
2550.50000    0.54346
2551.00000    0.48413
2551.50000    0.42316
2552.00000    0.36146
2552.50000    0.29992
2553.00000    0.23944
2553.50000    0.18087
2554.00000    0.12500
2554.50000    0.07256
2555.00000    0.02418
2555.50000   -0.01957
2556.00000   -0.05824
2556.50000   -0.09144
2557.00000   -0.11890
2557.50000   -0.14041
2558.00000   -0.15581
2558.50000   -0.16504
2559.00000   -0.16810
2559.50000   -0.16501
2560.00000   -0.15590
2560.50000   -0.14091
2561.00000   -0.12027
2561.50000   -0.09424
2562.00000   -0.06318
2562.50000   -0.02750
2563.00000    0.01234
2563.50000    0.05580
2564.00000    0.10229
2564.50000    0.15118
2565.00000    0.20181
2565.50000    0.25353
2566.00000    0.30568
2566.50000    0.35764
2567.00000    0.40886
2567.50000    0.45886
2568.00000    0.50727
2568.50000    0.55381
2569.00000    0.59834
2569.50000    0.64081
2570.00000    0.68130
2570.50000    0.71996
2571.00000    0.75702
2571.50000    0.79276
2572.00000    0.82747
2572.50000    0.86143
2573.00000    0.89487
2573.50000    0.92795
2574.00000    0.96075
2574.50000    0.99326
2575.00000    1.02533
2575.50000    1.05674
2576.00000    1.08718
2576.50000    1.11624
2577.00000    1.14351
2577.50000    1.16852
2578.00000    1.19086
2578.50000    1.21014
2579.00000    1.22607
2579.50000    1.23845
2580.00000    1.24722
2580.50000    1.25244
2581.00000    1.25431
2581.50000    1.25315
2582.00000    1.24939
2582.50000    1.24356
2583.00000    1.23622
2583.50000    1.22796
2584.00000    1.21936
2584.50000    1.21094
2585.00000    1.20313
2585.50000    1.19625
2586.00000    1.19047
2586.50000    1.18582
2587.00000    1.18216
2587.50000    1.17921
2588.00000    1.17655
2588.50000    1.17362
2589.00000    1.16979
2589.50000    1.16436
2590.00000    1.15660
2590.50000    1.14580
2591.00000    1.13130
2591.50000    1.11252
2592.00000    1.08900
2592.50000    1.06039
2593.00000    1.02651
2593.50000    0.98733
2594.00000    0.94298
2594.50000    0.89372
2595.00000    0.83995
2595.50000    0.78220
2596.00000    0.72107
2596.50000    0.65723
2597.00000    0.59136
2597.50000    0.52418
2598.00000    0.45637
2598.50000    0.38857
2599.00000    0.32137
2599.50000    0.25530
2600.00000    0.19080
2600.50000    0.12827
2601.00000    0.06800
2601.50000    0.01027
2602.00000   -0.04470
2602.50000   -0.09672
2603.00000   -0.14562
2603.50000   -0.19120
2604.00000   -0.23329
2604.50000   -0.27168
2605.00000   -0.30616
2605.50000   -0.33652
2606.00000   -0.36253
2606.50000   -0.38398
2607.00000   -0.40070
2607.50000   -0.41257
2608.00000   -0.41951
2608.50000   -0.42156
2609.00000   -0.41882
2609.50000   -0.41152
2610.00000   -0.39998
2610.50000   -0.38464
2611.00000   -0.36603
2611.50000   -0.34474
2612.00000   -0.32146
2612.50000   -0.29685
2613.00000   -0.27163
2613.50000   -0.24644
2614.00000   -0.22190
2614.50000   -0.19851
2615.00000   -0.17670
2615.50000   -0.15674
2616.00000   -0.13880
2616.50000   -0.12289
2617.00000   -0.10892
2617.50000   -0.09667
2618.00000   -0.08585
2618.50000   -0.07610
2619.00000   -0.06704
2619.50000   -0.05828
2620.00000   -0.04946
2620.50000   -0.04029
2621.00000   -0.03054
2621.50000   -0.02008
2622.00000   -0.00891
2622.50000    0.00292
2623.00000    0.01521
2623.50000    0.02771
2624.00000    0.04012
2624.50000    0.05207
2625.00000    0.06320
2625.50000    0.07320
2626.00000    0.08175
2626.50000    0.08865
2627.00000    0.09375
2627.50000    0.09704
2628.00000    0.09857
2628.50000    0.09853
2629.00000    0.09716
2629.50000    0.09482
2630.00000    0.09189
2630.50000    0.08877
2631.00000    0.08588
2631.50000    0.08361
2632.00000    0.08228
2632.50000    0.08215
2633.00000    0.08340
2633.50000    0.08610
2634.00000    0.09023
2634.50000    0.09569
2635.00000    0.10228
2635.50000    0.10976
2636.00000    0.11785
2636.50000    0.12627
2637.00000    0.13474
2637.50000    0.14304
2638.00000    0.15102
2638.50000    0.15860
2639.00000    0.16581
2639.50000    0.17277
2640.00000    0.17973
2640.50000    0.18700
2641.00000    0.19499
2641.50000    0.20415
2642.00000    0.21497
2642.50000    0.22793
2643.00000    0.24350
2643.50000    0.26208
2644.00000    0.28401
2644.50000    0.30950
2645.00000    0.33870
2645.50000    0.37158
2646.00000    0.40803
2646.50000    0.44782
2647.00000    0.49061
2647.50000    0.53599
2648.00000    0.58350
2648.50000    0.63262
2649.00000    0.68286
2649.50000    0.73373
2650.00000    0.78481
2650.50000    0.83574
2651.00000    0.88625
2651.50000    0.93620
2652.00000    0.98556
2652.50000    1.03442
2653.00000    1.08302
2653.50000    1.13168
2654.00000    1.18089
2654.50000    1.23118
2655.00000    1.28322
2655.50000    1.33770
2656.00000    1.39538
2656.50000    1.45703
2657.00000    1.52344
2657.50000    1.59536
2658.00000    1.67352
2658.50000    1.75857
2659.00000    1.85112
2659.50000    1.95167
2660.00000    2.06064
2660.50000    2.17835
2661.00000    2.30499
2661.50000    2.44067
2662.00000    2.58538
2662.50000    2.73900
2663.00000    2.90132
2663.50000    3.07204
2664.00000    3.25077
2664.50000    3.43706
2665.00000    3.63040
2665.50000    3.83024
2666.00000    4.03596
2666.50000    4.24697
2667.00000    4.46261
2667.50000    4.68225
2668.00000    4.90524
2668.50000    5.13096
2669.00000    5.35875
2669.50000    5.58802
2670.00000    5.81814
2670.50000    6.04852
2671.00000    6.27856
2671.50000    6.50767
2672.00000    6.73526
2672.50000    6.96072
2673.00000    7.18345
2673.50000    7.40281
2674.00000    7.61815
2674.50000    7.82881
2675.00000    8.03409
2675.50000    8.23327
2676.00000    8.42560
2676.50000    8.61032
2677.00000    8.78666
2677.50000    8.95383
2678.00000    9.11106
2678.50000    9.25759
2679.00000    9.39267
2679.50000    9.51561
2680.00000    9.62575
2680.50000    9.72252
2681.00000    9.80540
2681.50000    9.87397
2682.00000    9.92790
2682.50000    9.96695
2683.00000    9.99100
2683.50000   10.00000
2684.00000    9.99404
2684.50000    9.97326
2685.00000    9.93792
2685.50000    9.88833
2686.00000    9.82487
2686.50000    9.74796
2687.00000    9.65806
2687.50000    9.55564
2688.00000    9.44120
2688.50000    9.31523
2689.00000    9.17823
2689.50000    9.03070
2690.00000    8.87314
2690.50000    8.70605
2691.00000    8.52995
2691.50000    8.34538
2692.00000    8.15295
2692.50000    7.95327
2693.00000    7.74704
2693.50000    7.53502
2694.00000    7.31805
2694.50000    7.09703
2695.00000    6.87296
2695.50000    6.64688
2696.00000    6.41989
2696.50000    6.19313
2697.00000    5.96772
2697.50000    5.74479
2698.00000    5.52543
2698.50000    5.31062
2699.00000    5.10127
2699.50000    4.89815
2700.00000    4.70187
2700.50000    4.51287
2701.00000    4.33144
2701.50000    4.15766
2702.00000    3.99144
2702.50000    3.83253
2703.00000    3.68054
2703.50000    3.53497
2704.00000    3.39522
2704.50000    3.26065
2705.00000    3.13060
2705.50000    3.00444
2706.00000    2.88161
2706.50000    2.76161
2707.00000    2.64408
2707.50000    2.52879
2708.00000    2.41565
2708.50000    2.30472
2709.00000    2.19621
2709.50000    2.09045
2710.00000    1.98788
2710.50000    1.88903
2711.00000    1.79448
2711.50000    1.70481
2712.00000    1.62058
2712.50000    1.54232
2713.00000    1.47043
2713.50000    1.40520
2714.00000    1.34679
2714.50000    1.29517
2715.00000    1.25014
2715.50000    1.21131
2716.00000    1.17812
2716.50000    1.14985
2717.00000    1.12564
2717.50000    1.10451
2718.00000    1.08539
2718.50000    1.06719
2719.00000    1.04882
2719.50000    1.02923
2720.00000    1.00749
2720.50000    0.98276
2721.00000    0.95441
2721.50000    0.92196
2722.00000    0.88517
2722.50000    0.84402
2723.00000    0.79871
2723.50000    0.74963
2724.00000    0.69740
2724.50000    0.64276
2725.00000    0.58659
2725.50000    0.52983
2726.00000    0.47347
2726.50000    0.41848
2727.00000    0.36576
2727.50000    0.31614
2728.00000    0.27028
2728.50000    0.22872
2729.00000    0.19183
2729.50000    0.15980
2730.00000    0.13265
2730.50000    0.11027
2731.00000    0.09241
2731.50000    0.07873
2732.00000    0.06882
2732.50000    0.06222
2733.00000    0.05847
2733.50000    0.05711
2734.00000    0.05773
2734.50000    0.05996
2735.00000    0.06345
2735.50000    0.06795
2736.00000    0.07320
2736.50000    0.07900
2737.00000    0.08516
2737.50000    0.09147
2738.00000    0.09774
2738.50000    0.10374
2739.00000    0.10920
2739.50000    0.11384
2740.00000    0.11734
2740.50000    0.11937
2741.00000    0.11959
2741.50000    0.11768
2742.00000    0.11335
2742.50000    0.10632
2743.00000    0.09643
2743.50000    0.08354
2744.00000    0.06762
2744.50000    0.04871
2745.00000    0.02696
2745.50000    0.00258
2746.00000   -0.02414
2746.50000   -0.05284
2747.00000   -0.08313
2747.50000   -0.11456
2748.00000   -0.14666
2748.50000   -0.17895
2749.00000   -0.21097
2749.50000   -0.24222
2750.00000   -0.27224
2750.50000   -0.30059
2751.00000   -0.32683
2751.50000   -0.35054
2752.00000   -0.37134
2752.50000   -0.38887
2753.00000   -0.40277
2753.50000   -0.41276
2754.00000   -0.41854
2754.50000   -0.41991
2755.00000   -0.41668
2755.50000   -0.40873
2756.00000   -0.39598
2756.50000   -0.37843
2757.00000   -0.35612
2757.50000   -0.32916
2758.00000   -0.29770
2758.50000   -0.26194
2759.00000   -0.22211
2759.50000   -0.17845
2760.00000   -0.13123
2760.50000   -0.08071
2761.00000   -0.02717
2761.50000    0.02914
2762.00000    0.08796
2762.50000    0.14903
2763.00000    0.21211
2763.50000    0.27694
2764.00000    0.34324
2764.50000    0.41071
2765.00000    0.47902
2765.50000    0.54782
2766.00000    0.61670
2766.50000    0.68523
2767.00000    0.75297
2767.50000    0.81942
2768.00000    0.88410
2768.50000    0.94652
2769.00000    1.00618
2769.50000    1.06264
2770.00000    1.11544
2770.50000    1.16418
2771.00000    1.20850
2771.50000    1.24804
2772.00000    1.28249
2772.50000    1.31156
2773.00000    1.33498
2773.50000    1.35246
2774.00000    1.36373
2774.50000    1.36853
2775.00000    1.36658
2775.50000    1.35762
2776.00000    1.34140
2776.50000    1.31773
2777.00000    1.28644
2777.50000    1.24748
2778.00000    1.20086
2778.50000    1.14677
2779.00000    1.08549
2779.50000    1.01750
2780.00000    0.94345
2780.50000    0.86412
2781.00000    0.78049
2781.50000    0.69365
2782.00000    0.60481
2782.50000    0.51528
2783.00000    0.42638
2783.50000    0.33944
2784.00000    0.25574
2784.50000    0.17648
2785.00000    0.10271
2785.50000    0.03537
2786.00000   -0.02483
2786.50000   -0.07735
2787.00000   -0.12185
2787.50000   -0.15819
2788.00000   -0.18642
2788.50000   -0.20677
2789.00000   -0.21961
2789.50000   -0.22543
2790.00000   -0.22483
2790.50000   -0.21848
2791.00000   -0.20708
2791.50000   -0.19136
2792.00000   -0.17204
2792.50000   -0.14983
2793.00000   -0.12538
2793.50000   -0.09932
2794.00000   -0.07221
2794.50000   -0.04455
2795.00000   -0.01681
2795.50000    0.01063
2796.00000    0.03742
2796.50000    0.06327
2797.00000    0.08793
2797.50000    0.11121
2798.00000    0.13291
2798.50000    0.15291
2799.00000    0.17111
2799.50000    0.18740
2800.00000    0.20174
2800.50000    0.21410
2801.00000    0.22445
2801.50000    0.23281
2802.00000    0.23920
2802.50000    0.24368
2803.00000    0.24630
2803.50000    0.24716
2804.00000    0.24634
2804.50000    0.24395
2805.00000    0.24010
2805.50000    0.23491
2806.00000    0.22848
2806.50000    0.22090
2807.00000    0.21227
2807.50000    0.20262
2808.00000    0.19201
2808.50000    0.18042
2809.00000    0.16784
2809.50000    0.15421
2810.00000    0.13945
2810.50000    0.12345
2811.00000    0.10612
2811.50000    0.08733
2812.00000    0.06699
2812.50000    0.04502
2813.00000    0.02139
2813.50000   -0.00389
2814.00000   -0.03075
2814.50000   -0.05901
2815.00000   -0.08846
2815.50000   -0.11878
2816.00000   -0.14956
2816.50000   -0.18032
2817.00000   -0.21052
2817.50000   -0.23954
2818.00000   -0.26674
2818.50000   -0.29145
2819.00000   -0.31301
2819.50000   -0.33078
2820.00000   -0.34417
2820.50000   -0.35267
2821.00000   -0.35586
2821.50000   -0.35341
2822.00000   -0.34514
2822.50000   -0.33098
2823.00000   -0.31099
2823.50000   -0.28538
2824.00000   -0.25447
2824.50000   -0.21868
2825.00000   -0.17854
2825.50000   -0.13464
2826.00000   -0.08764
2826.50000   -0.03822
2827.00000    0.01293
2827.50000    0.06511
2828.00000    0.11765
2828.50000    0.16989
2829.00000    0.22122
2829.50000    0.27108
2830.00000    0.31894
2830.50000    0.36429
2831.00000    0.40668
2831.50000    0.44568
2832.00000    0.48090
2832.50000    0.51198
2833.00000    0.53858
2833.50000    0.56041
2834.00000    0.57724
2834.50000    0.58889
2835.00000    0.59524
2835.50000    0.59628
2836.00000    0.59209
2836.50000    0.58285
2837.00000    0.56885
2837.50000    0.55050
2838.00000    0.52831
2838.50000    0.50286
2839.00000    0.47483
2839.50000    0.44491
2840.00000    0.41382
2840.50000    0.38225
2841.00000    0.35082
2841.50000    0.32011
2842.00000    0.29053
2842.50000    0.26242
2843.00000    0.23595
2843.50000    0.21116
2844.00000    0.18798
2844.50000    0.16622
2845.00000    0.14562
2845.50000    0.12586
2846.00000    0.10662
2846.50000    0.08758
2847.00000    0.06849
2847.50000    0.04913
2848.00000    0.02940
2848.50000    0.00926
2849.00000   -0.01123
2849.50000   -0.03197
2850.00000   -0.05277
2850.50000   -0.07346
2851.00000   -0.09383
2851.50000   -0.11373
2852.00000   -0.13301
2852.50000   -0.15163
2853.00000   -0.16956
2853.50000   -0.18685
2854.00000   -0.20359
2854.50000   -0.21990
2855.00000   -0.23586
2855.50000   -0.25154
2856.00000   -0.26692
2856.50000   -0.28191
2857.00000   -0.29628
2857.50000   -0.30966
2858.00000   -0.32156
2858.50000   -0.33137
2859.00000   -0.33836
2859.50000   -0.34176
2860.00000   -0.34074
2860.50000   -0.33451
2861.00000   -0.32236
2861.50000   -0.30369
2862.00000   -0.27806
2862.50000   -0.24526
2863.00000   -0.20528
2863.50000   -0.15840
2864.00000   -0.10513
2864.50000   -0.04621
2865.00000    0.01738
2865.50000    0.08449
2866.00000    0.15384
2866.50000    0.22403
2867.00000    0.29366
2867.50000    0.36129
2868.00000    0.42556
2868.50000    0.48522
2869.00000    0.53912
2869.50000    0.58629
2870.00000    0.62594
2870.50000    0.65747
2871.00000    0.68048
2871.50000    0.69480
2872.00000    0.70043
2872.50000    0.69758
2873.00000    0.68667
2873.50000    0.66824
2874.00000    0.64304
2874.50000    0.61193
2875.00000    0.57588
2875.50000    0.53597
2876.00000    0.49332
2876.50000    0.44912
2877.00000    0.40452
2877.50000    0.36068
2878.00000    0.31868
2878.50000    0.27953
2879.00000    0.24408
2879.50000    0.21307
2880.00000    0.18707
2880.50000    0.16644
2881.00000    0.15138
2881.50000    0.14186
2882.00000    0.13770
2882.50000    0.13852
2883.00000    0.14376
2883.50000    0.15278
2884.00000    0.16477
2884.50000    0.17888
2885.00000    0.19419
2885.50000    0.20976
2886.00000    0.22468
2886.50000    0.23805
2887.00000    0.24905
2887.50000    0.25692
2888.00000    0.26101
2888.50000    0.26078
2889.00000    0.25580
2889.50000    0.24577
2890.00000    0.23054
2890.50000    0.21005
2891.00000    0.18442
2891.50000    0.15384
2892.00000    0.11867
2892.50000    0.07931
2893.00000    0.03630
2893.50000   -0.00981
2894.00000   -0.05839
2894.50000   -0.10883
2895.00000   -0.16052
2895.50000   -0.21293
2896.00000   -0.26556
2896.50000   -0.31805
2897.00000   -0.37014
2897.50000   -0.42169
2898.00000   -0.47269
2898.50000   -0.52322
2899.00000   -0.57346
2899.50000   -0.62357
