1200.50000   -0.05609
1201.00000   -0.04855
1201.50000   -0.04107
1202.00000   -0.03373
1202.50000   -0.02660
1203.00000   -0.01974
1203.50000   -0.01323
1204.00000   -0.00712
1204.50000   -0.00149
1205.00000    0.00365
1205.50000    0.00825
1206.00000    0.01230
1206.50000    0.01582
1207.00000    0.01882
1207.50000    0.02132
1208.00000    0.02337
1208.50000    0.02502
1209.00000    0.02631
1209.50000    0.02729
1210.00000    0.02802
1210.50000    0.02853
1211.00000    0.02887
1211.50000    0.02904
1212.00000    0.02908
1212.50000    0.02899
1213.00000    0.02877
1213.50000    0.02840
1214.00000    0.02786
1214.50000    0.02714
1215.00000    0.02620
1215.50000    0.02501
1216.00000    0.02355
1216.50000    0.02180
1217.00000    0.01973
1217.50000    0.01735
1218.00000    0.01466
1218.50000    0.01165
1219.00000    0.00837
1219.50000    0.00483
1220.00000    0.00110
1220.50000   -0.00279
1221.00000   -0.00677
1221.50000   -0.01076
1222.00000   -0.01469
1222.50000   -0.01849
1223.00000   -0.02208
1223.50000   -0.02536
1224.00000   -0.02828
1224.50000   -0.03075
1225.00000   -0.03271
1225.50000   -0.03410
1226.00000   -0.03488
1226.50000   -0.03501
1227.00000   -0.03447
1227.50000   -0.03324
1228.00000   -0.03133
1228.50000   -0.02876
1229.00000   -0.02557
1229.50000   -0.02178
1230.00000   -0.01746
1230.50000   -0.01268
1231.00000   -0.00752
1231.50000   -0.00205
1232.00000    0.00362
1232.50000    0.00939
1233.00000    0.01516
1233.50000    0.02083
1234.00000    0.02630
1234.50000    0.03146
1235.00000    0.03622
1235.50000    0.04048
1236.00000    0.04417
1236.50000    0.04722
1237.00000    0.04955
1237.50000    0.05113
1238.00000    0.05191
1238.50000    0.05187
1239.00000    0.05099
1239.50000    0.04927
1240.00000    0.04673
1240.50000    0.04340
1241.00000    0.03930
1241.50000    0.03450
1242.00000    0.02905
1242.50000    0.02303
1243.00000    0.01651
1243.50000    0.00959
1244.00000    0.00237
1244.50000   -0.00505
1245.00000   -0.01254
1245.50000   -0.02000
1246.00000   -0.02730
1246.50000   -0.03431
1247.00000   -0.04092
1247.50000   -0.04700
1248.00000   -0.05243
1248.50000   -0.05709
1249.00000   -0.06088
1249.50000   -0.06370
1250.00000   -0.06546
1250.50000   -0.06608
1251.00000   -0.06551
1251.50000   -0.06371
1252.00000   -0.06065
1252.50000   -0.05632
1253.00000   -0.05075
1253.50000   -0.04395
1254.00000   -0.03598
1254.50000   -0.02691
1255.00000   -0.01682
1255.50000   -0.00583
1256.00000    0.00597
1256.50000    0.01844
1257.00000    0.03145
1257.50000    0.04485
1258.00000    0.05850
1258.50000    0.07225
1259.00000    0.08596
1259.50000    0.09948
1260.00000    0.11268
1260.50000    0.12541
1261.00000    0.13758
1261.50000    0.14905
1262.00000    0.15972
1262.50000    0.16952
1263.00000    0.17834
1263.50000    0.18613
1264.00000    0.19283
1264.50000    0.19837
1265.00000    0.20273
1265.50000    0.20586
1266.00000    0.20775
1266.50000    0.20838
1267.00000    0.20773
1267.50000    0.20582
1268.00000    0.20265
1268.50000    0.19824
1269.00000    0.19262
1269.50000    0.18583
1270.00000    0.17794
1270.50000    0.16899
1271.00000    0.15909
1271.50000    0.14831
1272.00000    0.13676
1272.50000    0.12457
1273.00000    0.11187
1273.50000    0.09880
1274.00000    0.08550
1274.50000    0.07215
1275.00000    0.05889
1275.50000    0.04589
1276.00000    0.03330
1276.50000    0.02127
1277.00000    0.00994
1277.50000   -0.00056
1278.00000   -0.01013
1278.50000   -0.01868
1279.00000   -0.02613
1279.50000   -0.03244
1280.00000   -0.03758
1280.50000   -0.04154
1281.00000   -0.04434
1281.50000   -0.04602
1282.00000   -0.04661
1282.50000   -0.04618
1283.00000   -0.04482
1283.50000   -0.04261
1284.00000   -0.03963
1284.50000   -0.03600
1285.00000   -0.03182
1285.50000   -0.02718
1286.00000   -0.02219
1286.50000   -0.01695
1287.00000   -0.01157
1287.50000   -0.00614
1288.00000   -0.00076
1288.50000    0.00446
1289.00000    0.00943
1289.50000    0.01406
1290.00000    0.01825
1290.50000    0.02191
1291.00000    0.02495
1291.50000    0.02729
1292.00000    0.02885
1292.50000    0.02955
1293.00000    0.02935
1293.50000    0.02819
1294.00000    0.02606
1294.50000    0.02295
1295.00000    0.01887
1295.50000    0.01387
1296.00000    0.00801
1296.50000    0.00139
1297.00000   -0.00589
1297.50000   -0.01368
1298.00000   -0.02184
1298.50000   -0.03018
1299.00000   -0.03854
1299.50000   -0.04670
1300.00000   -0.05450
1300.50000   -0.06174
1301.00000   -0.06824
1301.50000   -0.07386
1302.00000   -0.07845
1302.50000   -0.08192
1303.00000   -0.08417
1303.50000   -0.08517
1304.00000   -0.08491
1304.50000   -0.08340
1305.00000   -0.08071
1305.50000   -0.07691
1306.00000   -0.07213
1306.50000   -0.06649
1307.00000   -0.06014
1307.50000   -0.05326
1308.00000   -0.04602
1308.50000   -0.03858
1309.00000   -0.03111
1309.50000   -0.02378
1310.00000   -0.01673
1310.50000   -0.01007
1311.00000   -0.00392
1311.50000    0.00165
1312.00000    0.00658
1312.50000    0.01085
1313.00000    0.01445
1313.50000    0.01739
1314.00000    0.01972
1314.50000    0.02148
1315.00000    0.02274
1315.50000    0.02358
1316.00000    0.02407
1316.50000    0.02429
1317.00000    0.02433
1317.50000    0.02424
1318.00000    0.02412
1318.50000    0.02399
1319.00000    0.02393
1319.50000    0.02395
1320.00000    0.02408
1320.50000    0.02434
1321.00000    0.02474
1321.50000    0.02527
1322.00000    0.02594
1322.50000    0.02676
1323.00000    0.02773
1323.50000    0.02887
1324.00000    0.03020
1324.50000    0.03176
1325.00000    0.03361
1325.50000    0.03582
1326.00000    0.03846
1326.50000    0.04164
1327.00000    0.04547
1327.50000    0.05007
1328.00000    0.05558
1328.50000    0.06211
1329.00000    0.06982
1329.50000    0.07880
1330.00000    0.08919
1330.50000    0.10107
1331.00000    0.11451
1331.50000    0.12956
1332.00000    0.14624
1332.50000    0.16454
1333.00000    0.18441
1333.50000    0.20576
1334.00000    0.22848
1334.50000    0.25241
1335.00000    0.27739
1335.50000    0.30319
1336.00000    0.32958
1336.50000    0.35631
1337.00000    0.38309
1337.50000    0.40964
1338.00000    0.43567
1338.50000    0.46087
1339.00000    0.48496
1339.50000    0.50764
1340.00000    0.52864
1340.50000    0.54768
1341.00000    0.56453
1341.50000    0.57897
1342.00000    0.59079
1342.50000    0.59983
1343.00000    0.60595
1343.50000    0.60905
1344.00000    0.60906
1344.50000    0.60597
1345.00000    0.59977
1345.50000    0.59054
1346.00000    0.57837
1346.50000    0.56341
1347.00000    0.54585
1347.50000    0.52590
1348.00000    0.50383
1348.50000    0.47993
1349.00000    0.45453
1349.50000    0.42796
1350.00000    0.40058
1350.50000    0.37276
1351.00000    0.34485
1351.50000    0.31721
1352.00000    0.29017
1352.50000    0.26405
1353.00000    0.23913
1353.50000    0.21565
1354.00000    0.19383
1354.50000    0.17381
1355.00000    0.15570
1355.50000    0.13958
1356.00000    0.12543
1356.50000    0.11324
1357.00000    0.10293
1357.50000    0.09437
1358.00000    0.08743
1358.50000    0.08195
1359.00000    0.07772
1359.50000    0.07456
1360.00000    0.07226
1360.50000    0.07063
1361.00000    0.06946
1361.50000    0.06858
1362.00000    0.06782
1362.50000    0.06703
1363.00000    0.06608
1363.50000    0.06487
1364.00000    0.06332
1364.50000    0.06134
1365.00000    0.05890
1365.50000    0.05596
1366.00000    0.05250
1366.50000    0.04851
1367.00000    0.04400
1367.50000    0.03897
1368.00000    0.03344
1368.50000    0.02743
1369.00000    0.02097
1369.50000    0.01410
1370.00000    0.00684
1370.50000   -0.00074
1371.00000   -0.00861
1371.50000   -0.01669
1372.00000   -0.02492
1372.50000   -0.03322
1373.00000   -0.04150
1373.50000   -0.04967
1374.00000   -0.05761
1374.50000   -0.06522
1375.00000   -0.07237
1375.50000   -0.07895
1376.00000   -0.08484
1376.50000   -0.08992
1377.00000   -0.09408
1377.50000   -0.09722
1378.00000   -0.09926
1378.50000   -0.10012
1379.00000   -0.09975
1379.50000   -0.09813
1380.00000   -0.09525
1380.50000   -0.09111
1381.00000   -0.08577
1381.50000   -0.07929
1382.00000   -0.07174
1382.50000   -0.06323
1383.00000   -0.05387
1383.50000   -0.04380
1384.00000   -0.03316
1384.50000   -0.02207
1385.00000   -0.01069
1385.50000    0.00086
1386.00000    0.01245
1386.50000    0.02396
1387.00000    0.03531
1387.50000    0.04641
1388.00000    0.05721
1388.50000    0.06766
1389.00000    0.07774
1389.50000    0.08745
1390.00000    0.09681
1390.50000    0.10583
1391.00000    0.11455
1391.50000    0.12301
1392.00000    0.13124
1392.50000    0.13930
1393.00000    0.14719
1393.50000    0.15496
1394.00000    0.16259
1394.50000    0.17008
1395.00000    0.17741
1395.50000    0.18453
1396.00000    0.19137
1396.50000    0.19787
1397.00000    0.20392
1397.50000    0.20944
1398.00000    0.21431
1398.50000    0.21842
1399.00000    0.22166
1399.50000    0.22392
1400.00000    0.22512
1400.50000    0.22516
1401.00000    0.22398
1401.50000    0.22153
1402.00000    0.21778
1402.50000    0.21274
1403.00000    0.20641
1403.50000    0.19884
1404.00000    0.19008
1404.50000    0.18021
1405.00000    0.16933
1405.50000    0.15754
1406.00000    0.14495
1406.50000    0.13170
1407.00000    0.11792
1407.50000    0.10374
1408.00000    0.08928
1408.50000    0.07469
1409.00000    0.06008
1409.50000    0.04559
1410.00000    0.03131
1410.50000    0.01735
1411.00000    0.00381
1411.50000   -0.00923
1412.00000   -0.02169
1412.50000   -0.03350
1413.00000   -0.04462
1413.50000   -0.05498
1414.00000   -0.06455
1414.50000   -0.07330
1415.00000   -0.08120
1415.50000   -0.08823
1416.00000   -0.09437
1416.50000   -0.09963
1417.00000   -0.10399
1417.50000   -0.10746
1418.00000   -0.11004
1418.50000   -0.11175
1419.00000   -0.11258
1419.50000   -0.11256
1420.00000   -0.11171
1420.50000   -0.11004
1421.00000   -0.10757
1421.50000   -0.10434
1422.00000   -0.10036
1422.50000   -0.09569
1423.00000   -0.09035
1423.50000   -0.08440
1424.00000   -0.07789
1424.50000   -0.07088
1425.00000   -0.06345
1425.50000   -0.05568
1426.00000   -0.04765
1426.50000   -0.03945
1427.00000   -0.03120
1427.50000   -0.02300
1428.00000   -0.01496
1428.50000   -0.00718
1429.00000    0.00023
1429.50000    0.00717
1430.00000    0.01354
1430.50000    0.01928
1431.00000    0.02433
1431.50000    0.02864
1432.00000    0.03219
1432.50000    0.03499
1433.00000    0.03706
1433.50000    0.03845
1434.00000    0.03924
1434.50000    0.03950
1435.00000    0.03934
1435.50000    0.03888
1436.00000    0.03826
1436.50000    0.03759
1437.00000    0.03701
1437.50000    0.03664
1438.00000    0.03659
1438.50000    0.03696
1439.00000    0.03784
1439.50000    0.03927
1440.00000    0.04128
1440.50000    0.04388
1441.00000    0.04705
1441.50000    0.05074
1442.00000    0.05488
1442.50000    0.05937
1443.00000    0.06411
1443.50000    0.06897
1444.00000    0.07382
1444.50000    0.07852
1445.00000    0.08294
1445.50000    0.08694
1446.00000    0.09040
1446.50000    0.09321
1447.00000    0.09527
1447.50000    0.09651
1448.00000    0.09686
1448.50000    0.09629
1449.00000    0.09479
1449.50000    0.09235
1450.00000    0.08900
1450.50000    0.08478
1451.00000    0.07974
1451.50000    0.07395
1452.00000    0.06748
1452.50000    0.06042
1453.00000    0.05285
1453.50000    0.04485
1454.00000    0.03653
1454.50000    0.02795
1455.00000    0.01920
1455.50000    0.01037
1456.00000    0.00152
1456.50000   -0.00728
1457.00000   -0.01595
1457.50000   -0.02444
1458.00000   -0.03267
1458.50000   -0.04060
1459.00000   -0.04815
1459.50000   -0.05526
1460.00000   -0.06187
1460.50000   -0.06792
1461.00000   -0.07334
1461.50000   -0.07808
1462.00000   -0.08208
1462.50000   -0.08528
1463.00000   -0.08765
1463.50000   -0.08916
1464.00000   -0.08978
1464.50000   -0.08951
1465.00000   -0.08837
1465.50000   -0.08637
1466.00000   -0.08357
1466.50000   -0.08002
1467.00000   -0.07580
1467.50000   -0.07101
1468.00000   -0.06573
1468.50000   -0.06007
1469.00000   -0.05415
1469.50000   -0.04806
1470.00000   -0.04191
1470.50000   -0.03578
1471.00000   -0.02976
1471.50000   -0.02389
1472.00000   -0.01822
1472.50000   -0.01277
1473.00000   -0.00755
1473.50000   -0.00252
1474.00000    0.00233
1474.50000    0.00706
1475.00000    0.01170
1475.50000    0.01631
1476.00000    0.02094
1476.50000    0.02564
1477.00000    0.03043
1477.50000    0.03533
1478.00000    0.04033
1478.50000    0.04541
1479.00000    0.05053
1479.50000    0.05563
1480.00000    0.06062
1480.50000    0.06540
1481.00000    0.06987
1481.50000    0.07393
1482.00000    0.07746
1482.50000    0.08036
1483.00000    0.08256
1483.50000    0.08397
1484.00000    0.08455
1484.50000    0.08428
1485.00000    0.08315
1485.50000    0.08122
1486.00000    0.07851
1486.50000    0.07513
1487.00000    0.07116
1487.50000    0.06674
1488.00000    0.06197
1488.50000    0.05700
1489.00000    0.05196
1489.50000    0.04699
1490.00000    0.04219
1490.50000    0.03768
1491.00000    0.03354
1491.50000    0.02983
1492.00000    0.02660
1492.50000    0.02388
1493.00000    0.02165
1493.50000    0.01991
1494.00000    0.01860
1494.50000    0.01769
1495.00000    0.01711
1495.50000    0.01678
1496.00000    0.01663
1496.50000    0.01658
1497.00000    0.01653
1497.50000    0.01642
1498.00000    0.01618
1498.50000    0.01573
1499.00000    0.01502
1499.50000    0.01400
1500.00000    0.01263
1500.50000    0.01089
1501.00000    0.00877
1501.50000    0.00626
1502.00000    0.00337
1502.50000    0.00012
1503.00000   -0.00347
1503.50000   -0.00734
1504.00000   -0.01146
1504.50000   -0.01576
1505.00000   -0.02019
1505.50000   -0.02467
1506.00000   -0.02914
1506.50000   -0.03352
1507.00000   -0.03775
1507.50000   -0.04176
1508.00000   -0.04548
1508.50000   -0.04886
1509.00000   -0.05185
1509.50000   -0.05441
1510.00000   -0.05653
1510.50000   -0.05817
1511.00000   -0.05935
1511.50000   -0.06006
1512.00000   -0.06031
1512.50000   -0.06014
1513.00000   -0.05957
1513.50000   -0.05863
1514.00000   -0.05736
1514.50000   -0.05578
1515.00000   -0.05393
1515.50000   -0.05184
1516.00000   -0.04953
1516.50000   -0.04703
1517.00000   -0.04435
1517.50000   -0.04151
1518.00000   -0.03852
1518.50000   -0.03541
1519.00000   -0.03218
1519.50000   -0.02886
1520.00000   -0.02547
1520.50000   -0.02206
1521.00000   -0.01865
1521.50000   -0.01530
1522.00000   -0.01206
1522.50000   -0.00901
1523.00000   -0.00621
1523.50000   -0.00373
1524.00000   -0.00164
1524.50000   -0.00002
1525.00000    0.00108
1525.50000    0.00160
1526.00000    0.00149
1526.50000    0.00074
1527.00000   -0.00068
1527.50000   -0.00275
1528.00000   -0.00545
1528.50000   -0.00875
1529.00000   -0.01259
1529.50000   -0.01690
1530.00000   -0.02160
1530.50000   -0.02661
1531.00000   -0.03182
1531.50000   -0.03715
1532.00000   -0.04250
1532.50000   -0.04778
1533.00000   -0.05290
1533.50000   -0.05779
1534.00000   -0.06237
1534.50000   -0.06658
1535.00000   -0.07037
1535.50000   -0.07370
1536.00000   -0.07651
1536.50000   -0.07879
1537.00000   -0.08048
1537.50000   -0.08158
1538.00000   -0.08204
1538.50000   -0.08183
1539.00000   -0.08094
1539.50000   -0.07934
1540.00000   -0.07700
1540.50000   -0.07391
1541.00000   -0.07005
1541.50000   -0.06543
1542.00000   -0.06005
1542.50000   -0.05393
1543.00000   -0.04711
1543.50000   -0.03965
1544.00000   -0.03162
1544.50000   -0.02311
1545.00000   -0.01422
1545.50000   -0.00509
1546.00000    0.00415
1546.50000    0.01336
1547.00000    0.02239
1547.50000    0.03108
1548.00000    0.03929
1548.50000    0.04689
1549.00000    0.05374
1549.50000    0.05975
1550.00000    0.06484
1550.50000    0.06894
1551.00000    0.07204
1551.50000    0.07413
1552.00000    0.07524
1552.50000    0.07543
1553.00000    0.07478
1553.50000    0.07340
1554.00000    0.07141
1554.50000    0.06895
1555.00000    0.06618
1555.50000    0.06324
1556.00000    0.06029
1556.50000    0.05749
1557.00000    0.05498
1557.50000    0.05292
1558.00000    0.05142
1558.50000    0.05060
1559.00000    0.05059
1559.50000    0.05148
1560.00000    0.05337
1560.50000    0.05634
1561.00000    0.06049
1561.50000    0.06589
1562.00000    0.07263
1562.50000    0.08082
1563.00000    0.09055
1563.50000    0.10193
1564.00000    0.11509
1564.50000    0.13016
1565.00000    0.14729
1565.50000    0.16664
1566.00000    0.18838
1566.50000    0.21268
1567.00000    0.23974
1567.50000    0.26974
1568.00000    0.30287
1568.50000    0.33931
1569.00000    0.37925
1569.50000    0.42285
1570.00000    0.47027
1570.50000    0.52164
1571.00000    0.57709
1571.50000    0.63670
1572.00000    0.70054
1572.50000    0.76864
1573.00000    0.84101
1573.50000    0.91759
1574.00000    0.99831
1574.50000    1.08303
1575.00000    1.17159
1575.50000    1.26376
1576.00000    1.35924
1576.50000    1.45770
1577.00000    1.55873
1577.50000    1.66187
1578.00000    1.76658
1578.50000    1.87227
1579.00000    1.97828
1579.50000    2.08389
1580.00000    2.18834
1580.50000    2.29079
1581.00000    2.39038
1581.50000    2.48620
1582.00000    2.57732
1582.50000    2.66281
1583.00000    2.74174
1583.50000    2.81319
1584.00000    2.87628
1584.50000    2.93018
1585.00000    2.97414
1585.50000    3.00749
1586.00000    3.02968
1586.50000    3.04026
1587.00000    3.03893
1587.50000    3.02554
1588.00000    3.00007
1588.50000    2.96268
1589.00000    2.91369
1589.50000    2.85356
1590.00000    2.78291
1590.50000    2.70249
1591.00000    2.61317
1591.50000    2.51594
1592.00000    2.41186
1592.50000    2.30209
1593.00000    2.18778
1593.50000    2.07016
1594.00000    1.95042
1594.50000    1.82973
1595.00000    1.70924
1595.50000    1.59001
1596.00000    1.47303
1596.50000    1.35921
1597.00000    1.24933
1597.50000    1.14407
1598.00000    1.04401
1598.50000    0.94957
1599.00000    0.86111
1599.50000    0.77883
1600.00000    0.70285
1600.50000    0.63318
1601.00000    0.56978
1601.50000    0.51249
1602.00000    0.46111
1602.50000    0.41540
1603.00000    0.37504
1603.50000    0.33971
1604.00000    0.30905
1604.50000    0.28269
1605.00000    0.26023
1605.50000    0.24130
1606.00000    0.22548
1606.50000    0.21240
1607.00000    0.20167
1607.50000    0.19293
1608.00000    0.18581
1608.50000    0.17998
1609.00000    0.17513
1609.50000    0.17095
1610.00000    0.16719
1610.50000    0.16361
1611.00000    0.16000
1611.50000    0.15621
1612.00000    0.15209
1612.50000    0.14757
1613.00000    0.14258
1613.50000    0.13710
1614.00000    0.13115
1614.50000    0.12475
1615.00000    0.11799
1615.50000    0.11094
1616.00000    0.10371
1616.50000    0.09638
1617.00000    0.08907
1617.50000    0.08188
1618.00000    0.07490
1618.50000    0.06820
1619.00000    0.06183
1619.50000    0.05585
1620.00000    0.05027
1620.50000    0.04508
1621.00000    0.04028
1621.50000    0.03582
1622.00000    0.03166
1622.50000    0.02775
1623.00000    0.02405
1623.50000    0.02050
1624.00000    0.01706
1624.50000    0.01370
1625.00000    0.01038
1625.50000    0.00711
1626.00000    0.00389
1626.50000    0.00072
1627.00000   -0.00238
1627.50000   -0.00538
1628.00000   -0.00825
1628.50000   -0.01097
1629.00000   -0.01353
1629.50000   -0.01591
1630.00000   -0.01811
1630.50000   -0.02017
1631.00000   -0.02209
1631.50000   -0.02394
1632.00000   -0.02576
1632.50000   -0.02763
1633.00000   -0.02961
1633.50000   -0.03177
1634.00000   -0.03417
1634.50000   -0.03687
1635.00000   -0.03990
1635.50000   -0.04327
1636.00000   -0.04696
1636.50000   -0.05092
1637.00000   -0.05509
1637.50000   -0.05935
1638.00000   -0.06356
1638.50000   -0.06758
1639.00000   -0.07122
1639.50000   -0.07430
1640.00000   -0.07662
1640.50000   -0.07799
1641.00000   -0.07823
1641.50000   -0.07718
1642.00000   -0.07471
1642.50000   -0.07073
1643.00000   -0.06516
1643.50000   -0.05799
1644.00000   -0.04926
1644.50000   -0.03903
1645.00000   -0.02741
1645.50000   -0.01458
1646.00000   -0.00071
1646.50000    0.01396
1647.00000    0.02920
1647.50000    0.04475
1648.00000    0.06034
1648.50000    0.07572
1649.00000    0.09062
1649.50000    0.10484
1650.00000    0.11814
1650.50000    0.13036
1651.00000    0.14135
1651.50000    0.15098
1652.00000    0.15917
1652.50000    0.16588
1653.00000    0.17108
1653.50000    0.17478
1654.00000    0.17701
1654.50000    0.17781
1655.00000    0.17725
1655.50000    0.17540
1656.00000    0.17233
1656.50000    0.16813
1657.00000    0.16286
1657.50000    0.15662
1658.00000    0.14945
1658.50000    0.14142
1659.00000    0.13261
1659.50000    0.12305
1660.00000    0.11281
1660.50000    0.10194
1661.00000    0.09052
1661.50000    0.07860
1662.00000    0.06628
1662.50000    0.05365
1663.00000    0.04081
1663.50000    0.02790
1664.00000    0.01504
1664.50000    0.00240
1665.00000   -0.00988
1665.50000   -0.02161
1666.00000   -0.03262
1666.50000   -0.04273
1667.00000   -0.05178
1667.50000   -0.05959
1668.00000   -0.06602
1668.50000   -0.07093
1669.00000   -0.07421
1669.50000   -0.07578
1670.00000   -0.07558
1670.50000   -0.07359
1671.00000   -0.06981
1671.50000   -0.06428
1672.00000   -0.05706
1672.50000   -0.04825
1673.00000   -0.03795
1673.50000   -0.02631
1674.00000   -0.01347
1674.50000    0.00039
1675.00000    0.01512
1675.50000    0.03054
1676.00000    0.04647
1676.50000    0.06273
1677.00000    0.07916
1677.50000    0.09559
1678.00000    0.11187
1678.50000    0.12784
1679.00000    0.14336
1679.50000    0.15829
1680.00000    0.17250
1680.50000    0.18586
1681.00000    0.19826
1681.50000    0.20957
1682.00000    0.21967
1682.50000    0.22846
1683.00000    0.23583
1683.50000    0.24168
1684.00000    0.24591
1684.50000    0.24845
1685.00000    0.24924
1685.50000    0.24821
1686.00000    0.24535
1686.50000    0.24065
1687.00000    0.23412
1687.50000    0.22580
1688.00000    0.21579
1688.50000    0.20416
1689.00000    0.19106
1689.50000    0.17664
1690.00000    0.16107
1690.50000    0.14455
1691.00000    0.12729
1691.50000    0.10953
1692.00000    0.09149
1692.50000    0.07341
1693.00000    0.05553
1693.50000    0.03806
1694.00000    0.02123
1694.50000    0.00524
1695.00000   -0.00973
1695.50000   -0.02351
1696.00000   -0.03596
1696.50000   -0.04695
1697.00000   -0.05637
1697.50000   -0.06414
1698.00000   -0.07020
1698.50000   -0.07450
1699.00000   -0.07702
1699.50000   -0.07774
1700.00000   -0.07669
1700.50000   -0.07388
1701.00000   -0.06937
1701.50000   -0.06323
1702.00000   -0.05555
1702.50000   -0.04643
1703.00000   -0.03602
1703.50000   -0.02448
1704.00000   -0.01199
1704.50000    0.00125
1705.00000    0.01501
1705.50000    0.02905
1706.00000    0.04311
1706.50000    0.05694
1707.00000    0.07028
1707.50000    0.08286
1708.00000    0.09445
1708.50000    0.10483
1709.00000    0.11382
1709.50000    0.12125
1710.00000    0.12702
1710.50000    0.13106
1711.00000    0.13336
1711.50000    0.13395
1712.00000    0.13291
1712.50000    0.13037
1713.00000    0.12650
1713.50000    0.12148
1714.00000    0.11553
1714.50000    0.10890
1715.00000    0.10180
1715.50000    0.09447
1716.00000    0.08712
1716.50000    0.07994
1717.00000    0.07310
1717.50000    0.06672
1718.00000    0.06089
1718.50000    0.05566
1719.00000    0.05104
1719.50000    0.04701
1720.00000    0.04351
1720.50000    0.04047
1721.00000    0.03778
1721.50000    0.03534
1722.00000    0.03303
1722.50000    0.03075
1723.00000    0.02839
1723.50000    0.02587
1724.00000    0.02313
1724.50000    0.02013
1725.00000    0.01683
1725.50000    0.01325
1726.00000    0.00940
1726.50000    0.00533
1727.00000    0.00109
1727.50000   -0.00326
1728.00000   -0.00765
1728.50000   -0.01201
1729.00000   -0.01626
1729.50000   -0.02034
1730.00000   -0.02419
1730.50000   -0.02775
1731.00000   -0.03098
1731.50000   -0.03385
1732.00000   -0.03631
1732.50000   -0.03834
1733.00000   -0.03993
1733.50000   -0.04105
1734.00000   -0.04169
1734.50000   -0.04182
1735.00000   -0.04143
1735.50000   -0.04049
1736.00000   -0.03897
1736.50000   -0.03685
1737.00000   -0.03410
1737.50000   -0.03069
1738.00000   -0.02659
1738.50000   -0.02178
1739.00000   -0.01626
1739.50000   -0.01001
1740.00000   -0.00304
1740.50000    0.00462
1741.00000    0.01295
1741.50000    0.02190
1742.00000    0.03141
1742.50000    0.04139
1743.00000    0.05176
1743.50000    0.06241
1744.00000    0.07323
1744.50000    0.08408
1745.00000    0.09484
1745.50000    0.10534
1746.00000    0.11545
1746.50000    0.12502
1747.00000    0.13389
1747.50000    0.14191
1748.00000    0.14894
1748.50000    0.15485
1749.00000    0.15951
1749.50000    0.16281
1750.00000    0.16468
1750.50000    0.16502
1751.00000    0.16380
1751.50000    0.16100
1752.00000    0.15662
1752.50000    0.15069
1753.00000    0.14327
1753.50000    0.13445
1754.00000    0.12435
1754.50000    0.11310
1755.00000    0.10086
1755.50000    0.08782
1756.00000    0.07417
1756.50000    0.06010
1757.00000    0.04583
1757.50000    0.03156
1758.00000    0.01749
1758.50000    0.00380
1759.00000   -0.00933
1759.50000   -0.02174
1760.00000   -0.03330
1760.50000   -0.04389
1761.00000   -0.05344
1761.50000   -0.06187
1762.00000   -0.06914
1762.50000   -0.07524
1763.00000   -0.08017
1763.50000   -0.08395
1764.00000   -0.08661
1764.50000   -0.08819
1765.00000   -0.08874
1765.50000   -0.08832
1766.00000   -0.08698
1766.50000   -0.08479
1767.00000   -0.08180
1767.50000   -0.07807
1768.00000   -0.07365
1768.50000   -0.06860
1769.00000   -0.06297
1769.50000   -0.05680
1770.00000   -0.05017
1770.50000   -0.04312
1771.00000   -0.03573
1771.50000   -0.02806
1772.00000   -0.02020
1772.50000   -0.01223
1773.00000   -0.00424
1773.50000    0.00367
1774.00000    0.01139
1774.50000    0.01881
1775.00000    0.02581
1775.50000    0.03230
1776.00000    0.03815
1776.50000    0.04327
1777.00000    0.04757
1777.50000    0.05095
1778.00000    0.05337
1778.50000    0.05477
1779.00000    0.05512
1779.50000    0.05441
1780.00000    0.05265
1780.50000    0.04988
1781.00000    0.04614
1781.50000    0.04152
1782.00000    0.03610
1782.50000    0.02999
1783.00000    0.02331
1783.50000    0.01620
1784.00000    0.00878
1784.50000    0.00121
1785.00000   -0.00637
1785.50000   -0.01381
1786.00000   -0.02096
1786.50000   -0.02770
1787.00000   -0.03387
1787.50000   -0.03936
1788.00000   -0.04406
1788.50000   -0.04786
1789.00000   -0.05066
1789.50000   -0.05239
1790.00000   -0.05299
1790.50000   -0.05239
1791.00000   -0.05058
1791.50000   -0.04753
1792.00000   -0.04324
1792.50000   -0.03773
1793.00000   -0.03104
1793.50000   -0.02322
1794.00000   -0.01438
1794.50000   -0.00459
1795.00000    0.00600
1795.50000    0.01725
1796.00000    0.02899
1796.50000    0.04104
1797.00000    0.05319
1797.50000    0.06524
1798.00000    0.07697
1798.50000    0.08816
1799.00000    0.09859
1799.50000    0.10807
1800.00000    0.11641
1800.50000    0.12344
1801.00000    0.12904
1801.50000    0.13309
1802.00000    0.13554
1802.50000    0.13635
1803.00000    0.13555
1803.50000    0.13319
1804.00000    0.12936
1804.50000    0.12419
1805.00000    0.11784
1805.50000    0.11049
1806.00000    0.10234
1806.50000    0.09360
1807.00000    0.08448
1807.50000    0.07521
1808.00000    0.06596
1808.50000    0.05693
1809.00000    0.04826
1809.50000    0.04009
1810.00000    0.03251
1810.50000    0.02560
1811.00000    0.01939
1811.50000    0.01390
1812.00000    0.00910
1812.50000    0.00496
1813.00000    0.00144
1813.50000   -0.00153
1814.00000   -0.00402
1814.50000   -0.00609
1815.00000   -0.00783
1815.50000   -0.00928
1816.00000   -0.01052
1816.50000   -0.01158
1817.00000   -0.01251
1817.50000   -0.01335
1818.00000   -0.01411
1818.50000   -0.01482
1819.00000   -0.01549
1819.50000   -0.01613
1820.00000   -0.01675
1820.50000   -0.01738
1821.00000   -0.01802
1821.50000   -0.01870
1822.00000   -0.01945
1822.50000   -0.02029
1823.00000   -0.02125
1823.50000   -0.02237
1824.00000   -0.02368
1824.50000   -0.02521
1825.00000   -0.02697
1825.50000   -0.02899
1826.00000   -0.03125
1826.50000   -0.03377
1827.00000   -0.03651
1827.50000   -0.03945
1828.00000   -0.04254
1828.50000   -0.04573
1829.00000   -0.04894
1829.50000   -0.05211
1830.00000   -0.05516
1830.50000   -0.05800
1831.00000   -0.06055
1831.50000   -0.06272
1832.00000   -0.06443
1832.50000   -0.06560
1833.00000   -0.06617
1833.50000   -0.06607
1834.00000   -0.06525
1834.50000   -0.06368
1835.00000   -0.06132
1835.50000   -0.05816
1836.00000   -0.05420
1836.50000   -0.04946
1837.00000   -0.04395
1837.50000   -0.03773
1838.00000   -0.03086
1838.50000   -0.02341
1839.00000   -0.01548
1839.50000   -0.00717
1840.00000    0.00139
1840.50000    0.01005
1841.00000    0.01868
1841.50000    0.02711
1842.00000    0.03517
1842.50000    0.04270
1843.00000    0.04954
1843.50000    0.05553
1844.00000    0.06052
1844.50000    0.06439
1845.00000    0.06704
1845.50000    0.06839
1846.00000    0.06839
1846.50000    0.06703
1847.00000    0.06434
1847.50000    0.06036
1848.00000    0.05520
1848.50000    0.04896
1849.00000    0.04180
1849.50000    0.03390
1850.00000    0.02544
1850.50000    0.01663
1851.00000    0.00769
1851.50000   -0.00120
1852.00000   -0.00981
1852.50000   -0.01797
1853.00000   -0.02550
1853.50000   -0.03227
1854.00000   -0.03815
1854.50000   -0.04305
1855.00000   -0.04691
1855.50000   -0.04970
1856.00000   -0.05141
1856.50000   -0.05205
1857.00000   -0.05167
1857.50000   -0.05032
1858.00000   -0.04806
1858.50000   -0.04499
1859.00000   -0.04117
1859.50000   -0.03669
1860.00000   -0.03164
1860.50000   -0.02610
1861.00000   -0.02016
1861.50000   -0.01388
1862.00000   -0.00733
1862.50000   -0.00060
1863.00000    0.00627
1863.50000    0.01321
1864.00000    0.02017
1864.50000    0.02707
1865.00000    0.03387
1865.50000    0.04051
1866.00000    0.04693
1866.50000    0.05308
1867.00000    0.05891
1867.50000    0.06438
1868.00000    0.06944
1868.50000    0.07404
1869.00000    0.07817
1869.50000    0.08180
1870.00000    0.08491
1870.50000    0.08750
1871.00000    0.08956
1871.50000    0.09110
1872.00000    0.09212
1872.50000    0.09265
1873.00000    0.09271
1873.50000    0.09230
1874.00000    0.09146
1874.50000    0.09020
1875.00000    0.08853
1875.50000    0.08647
1876.00000    0.08404
1876.50000    0.08124
1877.00000    0.07809
1877.50000    0.07459
1878.00000    0.07077
1878.50000    0.06665
1879.00000    0.06225
1879.50000    0.05760
1880.00000    0.05275
1880.50000    0.04773
1881.00000    0.04260
1881.50000    0.03743
1882.00000    0.03226
1882.50000    0.02717
1883.00000    0.02222
1883.50000    0.01747
1884.00000    0.01297
1884.50000    0.00878
1885.00000    0.00493
1885.50000    0.00144
1886.00000   -0.00165
1886.50000   -0.00436
1887.00000   -0.00669
1887.50000   -0.00866
1888.00000   -0.01028
1888.50000   -0.01159
1889.00000   -0.01263
1889.50000   -0.01341
1890.00000   -0.01398
1890.50000   -0.01434
1891.00000   -0.01452
1891.50000   -0.01452
1892.00000   -0.01433
1892.50000   -0.01395
1893.00000   -0.01336
1893.50000   -0.01255
1894.00000   -0.01149
1894.50000   -0.01018
1895.00000   -0.00861
1895.50000   -0.00679
1896.00000   -0.00475
1896.50000   -0.00253
1897.00000   -0.00019
1897.50000    0.00219
1898.00000    0.00452
1898.50000    0.00668
1899.00000    0.00856
1899.50000    0.01002
1900.00000    0.01093
1900.50000    0.01117
1901.00000    0.01063
1901.50000    0.00920
1902.00000    0.00682
1902.50000    0.00343
1903.00000   -0.00098
1903.50000   -0.00640
1904.00000   -0.01277
1904.50000   -0.02002
1905.00000   -0.02803
1905.50000   -0.03666
1906.00000   -0.04576
1906.50000   -0.05514
1907.00000   -0.06462
1907.50000   -0.07401
1908.00000   -0.08313
1908.50000   -0.09180
1909.00000   -0.09986
1909.50000   -0.10718
1910.00000   -0.11365
1910.50000   -0.11917
1911.00000   -0.12368
1911.50000   -0.12716
1912.00000   -0.12958
1912.50000   -0.13098
1913.00000   -0.13138
1913.50000   -0.13084
1914.00000   -0.12942
1914.50000   -0.12720
1915.00000   -0.12426
1915.50000   -0.12068
1916.00000   -0.11656
1916.50000   -0.11199
1917.00000   -0.10703
1917.50000   -0.10176
1918.00000   -0.09625
1918.50000   -0.09057
1919.00000   -0.08474
1919.50000   -0.07883
1920.00000   -0.07285
1920.50000   -0.06683
1921.00000   -0.06078
1921.50000   -0.05469
1922.00000   -0.04856
1922.50000   -0.04238
1923.00000   -0.03612
1923.50000   -0.02976
1924.00000   -0.02327
1924.50000   -0.01663
1925.00000   -0.00980
1925.50000   -0.00277
1926.00000    0.00447
1926.50000    0.01192
1927.00000    0.01956
1927.50000    0.02738
1928.00000    0.03531
1928.50000    0.04330
1929.00000    0.05125
1929.50000    0.05909
1930.00000    0.06669
1930.50000    0.07393
1931.00000    0.08070
1931.50000    0.08688
1932.00000    0.09234
1932.50000    0.09698
1933.00000    0.10072
1933.50000    0.10349
1934.00000    0.10524
1934.50000    0.10597
1935.00000    0.10569
1935.50000    0.10443
1936.00000    0.10227
1936.50000    0.09930
1937.00000    0.09563
1937.50000    0.09139
1938.00000    0.08671
1938.50000    0.08172
1939.00000    0.07654
1939.50000    0.07130
1940.00000    0.06610
1940.50000    0.06101
1941.00000    0.05609
1941.50000    0.05138
1942.00000    0.04688
1942.50000    0.04258
1943.00000    0.03845
1943.50000    0.03445
1944.00000    0.03053
1944.50000    0.02664
1945.00000    0.02275
1945.50000    0.01880
1946.00000    0.01480
1946.50000    0.01074
1947.00000    0.00665
1947.50000    0.00258
1948.00000   -0.00141
1948.50000   -0.00522
1949.00000   -0.00878
1949.50000   -0.01197
1950.00000   -0.01469
1950.50000   -0.01685
1951.00000   -0.01837
1951.50000   -0.01921
1952.00000   -0.01933
1952.50000   -0.01873
1953.00000   -0.01746
1953.50000   -0.01559
1954.00000   -0.01321
1954.50000   -0.01047
1955.00000   -0.00752
1955.50000   -0.00454
1956.00000   -0.00171
1956.50000    0.00078
1957.00000    0.00275
1957.50000    0.00403
1958.00000    0.00447
1958.50000    0.00397
1959.00000    0.00244
1959.50000   -0.00016
1960.00000   -0.00383
1960.50000   -0.00854
1961.00000   -0.01420
1961.50000   -0.02070
1962.00000   -0.02789
1962.50000   -0.03559
1963.00000   -0.04359
1963.50000   -0.05169
1964.00000   -0.05965
1964.50000   -0.06724
1965.00000   -0.07424
1965.50000   -0.08043
1966.00000   -0.08560
1966.50000   -0.08955
1967.00000   -0.09213
1967.50000   -0.09318
1968.00000   -0.09259
1968.50000   -0.09026
1969.00000   -0.08614
1969.50000   -0.08019
1970.00000   -0.07243
1970.50000   -0.06288
1971.00000   -0.05162
1971.50000   -0.03875
1972.00000   -0.02441
1972.50000   -0.00878
1973.00000    0.00795
1973.50000    0.02556
1974.00000    0.04377
1974.50000    0.06233
1975.00000    0.08095
1975.50000    0.09933
1976.00000    0.11717
1976.50000    0.13419
1977.00000    0.15012
1977.50000    0.16470
1978.00000    0.17772
1978.50000    0.18897
1979.00000    0.19832
1979.50000    0.20568
1980.00000    0.21098
1980.50000    0.21422
1981.00000    0.21546
1981.50000    0.21479
1982.00000    0.21235
1982.50000    0.20830
1983.00000    0.20286
1983.50000    0.19625
1984.00000    0.18872
1984.50000    0.18052
1985.00000    0.17189
1985.50000    0.16308
1986.00000    0.15428
1986.50000    0.14571
1987.00000    0.13752
1987.50000    0.12982
1988.00000    0.12273
1988.50000    0.11627
1989.00000    0.11047
1989.50000    0.10529
1990.00000    0.10070
1990.50000    0.09660
1991.00000    0.09289
1991.50000    0.08945
1992.00000    0.08615
1992.50000    0.08285
1993.00000    0.07943
1993.50000    0.07575
1994.00000    0.07173
1994.50000    0.06726
1995.00000    0.06228
1995.50000    0.05677
1996.00000    0.05070
1996.50000    0.04411
1997.00000    0.03704
1997.50000    0.02957
1998.00000    0.02182
1998.50000    0.01389
1999.00000    0.00594
1999.50000   -0.00188
2000.00000   -0.00941
2000.50000   -0.01649
2001.00000   -0.02297
2001.50000   -0.02869
2002.00000   -0.03352
2002.50000   -0.03737
2003.00000   -0.04014
2003.50000   -0.04179
2004.00000   -0.04227
2004.50000   -0.04159
2005.00000   -0.03979
2005.50000   -0.03691
2006.00000   -0.03304
2006.50000   -0.02829
2007.00000   -0.02276
2007.50000   -0.01659
2008.00000   -0.00993
2008.50000   -0.00290
2009.00000    0.00433
2009.50000    0.01164
2010.00000    0.01890
2010.50000    0.02597
2011.00000    0.03275
2011.50000    0.03913
2012.00000    0.04503
2012.50000    0.05037
2013.00000    0.05508
2013.50000    0.05910
2014.00000    0.06239
2014.50000    0.06491
2015.00000    0.06664
2015.50000    0.06753
2016.00000    0.06760
2016.50000    0.06682
2017.00000    0.06521
2017.50000    0.06277
2018.00000    0.05954
2018.50000    0.05554
2019.00000    0.05082
2019.50000    0.04545
2020.00000    0.03948
2020.50000    0.03299
2021.00000    0.02608
2021.50000    0.01882
2022.00000    0.01132
2022.50000    0.00366
2023.00000   -0.00405
2023.50000   -0.01174
2024.00000   -0.01931
2024.50000   -0.02670
2025.00000   -0.03385
2025.50000   -0.04071
2026.00000   -0.04724
2026.50000   -0.05342
2027.00000   -0.05924
2027.50000   -0.06468
2028.00000   -0.06974
2028.50000   -0.07443
2029.00000   -0.07874
2029.50000   -0.08266
2030.00000   -0.08618
2030.50000   -0.08926
2031.00000   -0.09188
2031.50000   -0.09398
2032.00000   -0.09550
2032.50000   -0.09637
2033.00000   -0.09652
2033.50000   -0.09586
2034.00000   -0.09434
2034.50000   -0.09189
2035.00000   -0.08845
2035.50000   -0.08400
2036.00000   -0.07853
2036.50000   -0.07208
2037.00000   -0.06469
2037.50000   -0.05645
2038.00000   -0.04747
2038.50000   -0.03790
2039.00000   -0.02791
2039.50000   -0.01768
2040.00000   -0.00742
2040.50000    0.00267
2041.00000    0.01238
2041.50000    0.02152
2042.00000    0.02992
2042.50000    0.03742
2043.00000    0.04389
2043.50000    0.04925
2044.00000    0.05343
2044.50000    0.05641
2045.00000    0.05822
2045.50000    0.05889
2046.00000    0.05849
2046.50000    0.05713
2047.00000    0.05490
2047.50000    0.05194
2048.00000    0.04837
2048.50000    0.04430
2049.00000    0.03984
2049.50000    0.03511
2050.00000    0.03019
2050.50000    0.02513
2051.00000    0.02001
2051.50000    0.01484
2052.00000    0.00966
2052.50000    0.00447
2053.00000   -0.00071
2053.50000   -0.00587
2054.00000   -0.01100
2054.50000   -0.01609
2055.00000   -0.02110
2055.50000   -0.02599
2056.00000   -0.03070
2056.50000   -0.03515
2057.00000   -0.03925
2057.50000   -0.04291
2058.00000   -0.04601
2058.50000   -0.04845
2059.00000   -0.05012
2059.50000   -0.05091
2060.00000   -0.05076
2060.50000   -0.04957
2061.00000   -0.04731
2061.50000   -0.04396
2062.00000   -0.03952
2062.50000   -0.03403
2063.00000   -0.02754
2063.50000   -0.02014
2064.00000   -0.01195
2064.50000   -0.00309
2065.00000    0.00629
2065.50000    0.01604
2066.00000    0.02600
2066.50000    0.03601
2067.00000    0.04592
2067.50000    0.05561
2068.00000    0.06494
2068.50000    0.07383
2069.00000    0.08219
2069.50000    0.08998
2070.00000    0.09717
2070.50000    0.10376
2071.00000    0.10976
2071.50000    0.11522
2072.00000    0.12018
2072.50000    0.12471
2073.00000    0.12887
2073.50000    0.13274
2074.00000    0.13636
2074.50000    0.13980
2075.00000    0.14309
2075.50000    0.14624
2076.00000    0.14926
2076.50000    0.15211
2077.00000    0.15477
2077.50000    0.15715
2078.00000    0.15919
2078.50000    0.16077
2079.00000    0.16181
2079.50000    0.16219
2080.00000    0.16180
2080.50000    0.16054
2081.00000    0.15833
2081.50000    0.15510
2082.00000    0.15081
2082.50000    0.14543
2083.00000    0.13897
2083.50000    0.13146
2084.00000    0.12297
2084.50000    0.11358
2085.00000    0.10339
2085.50000    0.09252
2086.00000    0.08113
2086.50000    0.06934
2087.00000    0.05732
2087.50000    0.04520
2088.00000    0.03313
2088.50000    0.02125
2089.00000    0.00968
2089.50000   -0.00145
2090.00000   -0.01205
2090.50000   -0.02201
2091.00000   -0.03125
2091.50000   -0.03968
2092.00000   -0.04725
2092.50000   -0.05387
2093.00000   -0.05950
2093.50000   -0.06407
2094.00000   -0.06753
2094.50000   -0.06984
2095.00000   -0.07096
2095.50000   -0.07087
2096.00000   -0.06955
2096.50000   -0.06701
2097.00000   -0.06328
2097.50000   -0.05839
2098.00000   -0.05242
2098.50000   -0.04547
2099.00000   -0.03764
2099.50000   -0.02908
2100.00000   -0.01996
2100.50000   -0.01044
2101.00000   -0.00073
2101.50000    0.00899
2102.00000    0.01852
2102.50000    0.02768
2103.00000    0.03628
2103.50000    0.04417
2104.00000    0.05123
2104.50000    0.05734
2105.00000    0.06246
2105.50000    0.06653
2106.00000    0.06955
2106.50000    0.07157
2107.00000    0.07263
2107.50000    0.07282
2108.00000    0.07224
2108.50000    0.07100
2109.00000    0.06923
2109.50000    0.06705
2110.00000    0.06458
2110.50000    0.06192
2111.00000    0.05916
2111.50000    0.05638
2112.00000    0.05364
2112.50000    0.05097
2113.00000    0.04838
2113.50000    0.04588
2114.00000    0.04344
2114.50000    0.04104
2115.00000    0.03863
2115.50000    0.03617
2116.00000    0.03362
2116.50000    0.03094
2117.00000    0.02808
2117.50000    0.02501
2118.00000    0.02173
2118.50000    0.01820
2119.00000    0.01445
2119.50000    0.01049
2120.00000    0.00633
2120.50000    0.00203
2121.00000   -0.00238
2121.50000   -0.00683
2122.00000   -0.01128
2122.50000   -0.01566
2123.00000   -0.01991
2123.50000   -0.02397
2124.00000   -0.02780
2124.50000   -0.03135
2125.00000   -0.03458
2125.50000   -0.03748
2126.00000   -0.04004
2126.50000   -0.04225
2127.00000   -0.04415
2127.50000   -0.04576
2128.00000   -0.04713
2128.50000   -0.04832
2129.00000   -0.04938
2129.50000   -0.05038
2130.00000   -0.05139
2130.50000   -0.05249
2131.00000   -0.05372
2131.50000   -0.05513
2132.00000   -0.05677
2132.50000   -0.05864
2133.00000   -0.06074
2133.50000   -0.06306
2134.00000   -0.06554
2134.50000   -0.06812
2135.00000   -0.07072
2135.50000   -0.07324
2136.00000   -0.07556
2136.50000   -0.07758
2137.00000   -0.07917
2137.50000   -0.08021
2138.00000   -0.08061
2138.50000   -0.08027
2139.00000   -0.07911
2139.50000   -0.07710
2140.00000   -0.07421
2140.50000   -0.07043
2141.00000   -0.06580
2141.50000   -0.06037
2142.00000   -0.05420
2142.50000   -0.04740
2143.00000   -0.04005
2143.50000   -0.03227
2144.00000   -0.02417
2144.50000   -0.01586
2145.00000   -0.00744
2145.50000    0.00098
2146.00000    0.00934
2146.50000    0.01754
2147.00000    0.02553
2147.50000    0.03327
2148.00000    0.04071
2148.50000    0.04781
2149.00000    0.05455
2149.50000    0.06089
2150.00000    0.06681
2150.50000    0.07227
2151.00000    0.07723
2151.50000    0.08166
2152.00000    0.08552
2152.50000    0.08874
2153.00000    0.09130
2153.50000    0.09313
2154.00000    0.09422
2154.50000    0.09452
2155.00000    0.09403
2155.50000    0.09273
2156.00000    0.09064
2156.50000    0.08778
2157.00000    0.08420
2157.50000    0.07995
2158.00000    0.07511
2158.50000    0.06974
2159.00000    0.06393
2159.50000    0.05776
2160.00000    0.05131
2160.50000    0.04467
2161.00000    0.03789
2161.50000    0.03105
2162.00000    0.02417
2162.50000    0.01731
2163.00000    0.01047
2163.50000    0.00368
2164.00000   -0.00305
2164.50000   -0.00972
2165.00000   -0.01633
2165.50000   -0.02287
2166.00000   -0.02933
2166.50000   -0.03568
2167.00000   -0.04191
2167.50000   -0.04797
2168.00000   -0.05380
2168.50000   -0.05935
2169.00000   -0.06454
2169.50000   -0.06929
2170.00000   -0.07353
2170.50000   -0.07716
2171.00000   -0.08011
2171.50000   -0.08229
2172.00000   -0.08363
2172.50000   -0.08408
2173.00000   -0.08359
2173.50000   -0.08211
2174.00000   -0.07962
2174.50000   -0.07613
2175.00000   -0.07163
2175.50000   -0.06615
2176.00000   -0.05972
2176.50000   -0.05239
2177.00000   -0.04422
2177.50000   -0.03527
2178.00000   -0.02563
2178.50000   -0.01538
2179.00000   -0.00463
2179.50000    0.00651
2180.00000    0.01794
2180.50000    0.02951
2181.00000    0.04111
2181.50000    0.05260
2182.00000    0.06385
2182.50000    0.07470
2183.00000    0.08504
2183.50000    0.09473
2184.00000    0.10364
2184.50000    0.11168
2185.00000    0.11874
2185.50000    0.12475
2186.00000    0.12967
2186.50000    0.13345
2187.00000    0.13609
2187.50000    0.13761
2188.00000    0.13806
2188.50000    0.13749
2189.00000    0.13600
2189.50000    0.13368
2190.00000    0.13065
2190.50000    0.12704
2191.00000    0.12297
2191.50000    0.11856
2192.00000    0.11394
2192.50000    0.10921
2193.00000    0.10446
2193.50000    0.09976
2194.00000    0.09515
2194.50000    0.09067
2195.00000    0.08631
2195.50000    0.08204
2196.00000    0.07782
2196.50000    0.07358
2197.00000    0.06925
2197.50000    0.06473
2198.00000    0.05993
2198.50000    0.05476
2199.00000    0.04913
2199.50000    0.04296
2200.00000    0.03620
2200.50000    0.02882
2201.00000    0.02081
2201.50000    0.01219
2202.00000    0.00301
2202.50000   -0.00665
2203.00000   -0.01669
2203.50000   -0.02697
2204.00000   -0.03735
2204.50000   -0.04765
2205.00000   -0.05770
2205.50000   -0.06731
2206.00000   -0.07631
2206.50000   -0.08452
2207.00000   -0.09178
2207.50000   -0.09794
2208.00000   -0.10288
2208.50000   -0.10650
2209.00000   -0.10872
2209.50000   -0.10949
2210.00000   -0.10879
2210.50000   -0.10663
2211.00000   -0.10304
2211.50000   -0.09808
2212.00000   -0.09182
2212.50000   -0.08435
2213.00000   -0.07580
2213.50000   -0.06630
2214.00000   -0.05600
2214.50000   -0.04504
2215.00000   -0.03361
2215.50000   -0.02187
2216.00000   -0.01001
2216.50000    0.00178
2217.00000    0.01333
2217.50000    0.02444
2218.00000    0.03495
2218.50000    0.04468
2219.00000    0.05347
2219.50000    0.06120
2220.00000    0.06774
2220.50000    0.07300
2221.00000    0.07692
2221.50000    0.07946
2222.00000    0.08061
2222.50000    0.08039
2223.00000    0.07885
2223.50000    0.07607
2224.00000    0.07215
2224.50000    0.06720
2225.00000    0.06136
2225.50000    0.05476
2226.00000    0.04757
2226.50000    0.03992
2227.00000    0.03195
2227.50000    0.02381
2228.00000    0.01562
2228.50000    0.00749
2229.00000   -0.00047
2229.50000   -0.00818
2230.00000   -0.01555
2230.50000   -0.02252
2231.00000   -0.02902
2231.50000   -0.03500
2232.00000   -0.04040
2232.50000   -0.04519
2233.00000   -0.04930
2233.50000   -0.05271
2234.00000   -0.05537
2234.50000   -0.05724
2235.00000   -0.05829
2235.50000   -0.05851
2236.00000   -0.05787
2236.50000   -0.05638
2237.00000   -0.05405
2237.50000   -0.05091
2238.00000   -0.04700
2238.50000   -0.04239
2239.00000   -0.03715
2239.50000   -0.03136
2240.00000   -0.02513
2240.50000   -0.01857
2241.00000   -0.01178
2241.50000   -0.00487
2242.00000    0.00203
2242.50000    0.00883
2243.00000    0.01543
2243.50000    0.02174
2244.00000    0.02767
2244.50000    0.03315
2245.00000    0.03812
2245.50000    0.04253
2246.00000    0.04632
2246.50000    0.04946
2247.00000    0.05191
2247.50000    0.05364
2248.00000    0.05461
2248.50000    0.05480
2249.00000    0.05419
2249.50000    0.05276
2250.00000    0.05050
2250.50000    0.04742
2251.00000    0.04354
2251.50000    0.03891
2252.00000    0.03357
2252.50000    0.02762
2253.00000    0.02117
2253.50000    0.01433
2254.00000    0.00728
2254.50000    0.00017
2255.00000   -0.00681
2255.50000   -0.01346
2256.00000   -0.01959
2256.50000   -0.02503
2257.00000   -0.02959
2257.50000   -0.03315
2258.00000   -0.03559
2258.50000   -0.03684
2259.00000   -0.03688
2259.50000   -0.03572
2260.00000   -0.03344
2260.50000   -0.03014
2261.00000   -0.02599
2261.50000   -0.02116
2262.00000   -0.01589
2262.50000   -0.01039
2263.00000   -0.00492
2263.50000    0.00031
2264.00000    0.00508
2264.50000    0.00920
2265.00000    0.01252
2265.50000    0.01494
2266.00000    0.01640
2266.50000    0.01688
2267.00000    0.01642
2267.50000    0.01512
2268.00000    0.01309
2268.50000    0.01049
2269.00000    0.00749
2269.50000    0.00429
2270.00000    0.00108
2270.50000   -0.00197
2271.00000   -0.00467
2271.50000   -0.00689
2272.00000   -0.00852
2272.50000   -0.00948
2273.00000   -0.00971
2273.50000   -0.00922
2274.00000   -0.00802
2274.50000   -0.00615
2275.00000   -0.00368
2275.50000   -0.00070
2276.00000    0.00271
2276.50000    0.00645
2277.00000    0.01044
2277.50000    0.01459
2278.00000    0.01883
2278.50000    0.02309
2279.00000    0.02731
2279.50000    0.03146
2280.00000    0.03550
2280.50000    0.03938
2281.00000    0.04309
2281.50000    0.04657
2282.00000    0.04980
2282.50000    0.05272
2283.00000    0.05529
2283.50000    0.05745
2284.00000    0.05913
2284.50000    0.06028
2285.00000    0.06084
2285.50000    0.06076
2286.00000    0.05999
2286.50000    0.05851
2287.00000    0.05631
2287.50000    0.05341
2288.00000    0.04984
2288.50000    0.04565
2289.00000    0.04092
2289.50000    0.03575
2290.00000    0.03024
2290.50000    0.02451
2291.00000    0.01868
2291.50000    0.01286
2292.00000    0.00717
2292.50000    0.00170
2293.00000   -0.00348
2293.50000   -0.00831
2294.00000   -0.01276
2294.50000   -0.01681
2295.00000   -0.02050
2295.50000   -0.02385
2296.00000   -0.02694
2296.50000   -0.02982
2297.00000   -0.03258
2297.50000   -0.03531
2298.00000   -0.03809
2298.50000   -0.04100
2299.00000   -0.04410
2299.50000   -0.04745
2300.00000   -0.05108
2300.50000   -0.05498
2301.00000   -0.05914
2301.50000   -0.06353
2302.00000   -0.06807
2302.50000   -0.07268
2303.00000   -0.07726
2303.50000   -0.08169
2304.00000   -0.08584
2304.50000   -0.08959
2305.00000   -0.09280
2305.50000   -0.09536
2306.00000   -0.09714
2306.50000   -0.09805
2307.00000   -0.09801
2307.50000   -0.09696
2308.00000   -0.09489
2308.50000   -0.09177
2309.00000   -0.08764
2309.50000   -0.08254
2310.00000   -0.07656
2310.50000   -0.06978
2311.00000   -0.06232
2311.50000   -0.05432
2312.00000   -0.04591
2312.50000   -0.03724
2313.00000   -0.02845
2313.50000   -0.01969
2314.00000   -0.01107
2314.50000   -0.00273
2315.00000    0.00525
2315.50000    0.01279
2316.00000    0.01983
2316.50000    0.02633
2317.00000    0.03229
2317.50000    0.03772
2318.00000    0.04264
2318.50000    0.04710
2319.00000    0.05115
2319.50000    0.05485
2320.00000    0.05827
2320.50000    0.06147
2321.00000    0.06451
2321.50000    0.06743
2322.00000    0.07027
2322.50000    0.07304
2323.00000    0.07574
2323.50000    0.07835
2324.00000    0.08082
2324.50000    0.08308
2325.00000    0.08507
2325.50000    0.08669
2326.00000    0.08782
2326.50000    0.08838
2327.00000    0.08823
2327.50000    0.08729
2328.00000    0.08545
2328.50000    0.08263
2329.00000    0.07878
2329.50000    0.07386
2330.00000    0.06788
2330.50000    0.06086
2331.00000    0.05286
2331.50000    0.04397
2332.00000    0.03433
2332.50000    0.02409
2333.00000    0.01343
2333.50000    0.00254
2334.00000   -0.00837
2334.50000   -0.01907
2335.00000   -0.02937
2335.50000   -0.03905
2336.00000   -0.04792
2336.50000   -0.05584
2337.00000   -0.06267
2337.50000   -0.06831
2338.00000   -0.07270
2338.50000   -0.07581
2339.00000   -0.07766
2339.50000   -0.07830
2340.00000   -0.07779
2340.50000   -0.07625
2341.00000   -0.07378
2341.50000   -0.07051
2342.00000   -0.06659
2342.50000   -0.06212
2343.00000   -0.05723
2343.50000   -0.05202
2344.00000   -0.04656
2344.50000   -0.04090
2345.00000   -0.03508
2345.50000   -0.02910
2346.00000   -0.02294
2346.50000   -0.01656
2347.00000   -0.00991
2347.50000   -0.00294
2348.00000    0.00440
2348.50000    0.01217
2349.00000    0.02039
2349.50000    0.02906
2350.00000    0.03817
2350.50000    0.04765
2351.00000    0.05742
2351.50000    0.06733
2352.00000    0.07724
2352.50000    0.08694
2353.00000    0.09622
2353.50000    0.10485
2354.00000    0.11257
2354.50000    0.11916
2355.00000    0.12438
2355.50000    0.12804
2356.00000    0.12997
2356.50000    0.13005
2357.00000    0.12823
2357.50000    0.12448
2358.00000    0.11886
2358.50000    0.11150
2359.00000    0.10256
2359.50000    0.09228
2360.00000    0.08093
2360.50000    0.06884
2361.00000    0.05635
2361.50000    0.04381
2362.00000    0.03159
2362.50000    0.02005
2363.00000    0.00950
2363.50000    0.00025
2364.00000   -0.00745
2364.50000   -0.01339
2365.00000   -0.01743
2365.50000   -0.01947
2366.00000   -0.01947
2366.50000   -0.01746
2367.00000   -0.01349
2367.50000   -0.00770
2368.00000   -0.00022
2368.50000    0.00874
2369.00000    0.01898
2369.50000    0.03024
2370.00000    0.04229
2370.50000    0.05487
2371.00000    0.06770
2371.50000    0.08053
2372.00000    0.09309
2372.50000    0.10514
2373.00000    0.11641
2373.50000    0.12668
2374.00000    0.13572
2374.50000    0.14332
2375.00000    0.14929
2375.50000    0.15346
2376.00000    0.15569
2376.50000    0.15587
2377.00000    0.15392
2377.50000    0.14981
2378.00000    0.14353
2378.50000    0.13514
2379.00000    0.12475
2379.50000    0.11249
2380.00000    0.09857
2380.50000    0.08321
2381.00000    0.06670
2381.50000    0.04933
2382.00000    0.03144
2382.50000    0.01336
2383.00000   -0.00456
2383.50000   -0.02200
2384.00000   -0.03864
2384.50000   -0.05421
2385.00000   -0.06845
2385.50000   -0.08116
2386.00000   -0.09221
2386.50000   -0.10149
2387.00000   -0.10896
2387.50000   -0.11464
2388.00000   -0.11856
2388.50000   -0.12083
2389.00000   -0.12159
2389.50000   -0.12098
2390.00000   -0.11917
2390.50000   -0.11635
2391.00000   -0.11270
2391.50000   -0.10838
2392.00000   -0.10356
2392.50000   -0.09837
2393.00000   -0.09294
2393.50000   -0.08735
2394.00000   -0.08169
2394.50000   -0.07600
2395.00000   -0.07032
2395.50000   -0.06466
2396.00000   -0.05903
2396.50000   -0.05344
2397.00000   -0.04787
2397.50000   -0.04233
2398.00000   -0.03682
2398.50000   -0.03134
2399.00000   -0.02589
2399.50000   -0.02050
2400.00000   -0.01519
2400.50000   -0.00997
2401.00000   -0.00487
2401.50000    0.00009
2402.00000    0.00488
2402.50000    0.00950
2403.00000    0.01393
2403.50000    0.01818
2404.00000    0.02226
2404.50000    0.02619
2405.00000    0.03002
2405.50000    0.03378
2406.00000    0.03752
2406.50000    0.04130
2407.00000    0.04519
2407.50000    0.04926
2408.00000    0.05356
2408.50000    0.05818
2409.00000    0.06317
2409.50000    0.06860
2410.00000    0.07452
2410.50000    0.08097
2411.00000    0.08798
2411.50000    0.09559
2412.00000    0.10379
2412.50000    0.11256
2413.00000    0.12188
2413.50000    0.13170
2414.00000    0.14193
2414.50000    0.15248
2415.00000    0.16322
2415.50000    0.17401
2416.00000    0.18466
2416.50000    0.19501
2417.00000    0.20484
2417.50000    0.21394
2418.00000    0.22209
2418.50000    0.22909
2419.00000    0.23473
2419.50000    0.23883
2420.00000    0.24123
2420.50000    0.24182
2421.00000    0.24051
2421.50000    0.23727
2422.00000    0.23210
2422.50000    0.22505
2423.00000    0.21623
2423.50000    0.20578
2424.00000    0.19388
2424.50000    0.18074
2425.00000    0.16659
2425.50000    0.15169
2426.00000    0.13626
2426.50000    0.12058
2427.00000    0.10487
2427.50000    0.08934
2428.00000    0.07418
2428.50000    0.05956
2429.00000    0.04561
2429.50000    0.03243
2430.00000    0.02007
2430.50000    0.00859
2431.00000   -0.00199
2431.50000   -0.01168
2432.00000   -0.02050
2432.50000   -0.02845
2433.00000   -0.03558
2433.50000   -0.04189
2434.00000   -0.04741
2434.50000   -0.05216
2435.00000   -0.05613
2435.50000   -0.05932
2436.00000   -0.06170
2436.50000   -0.06327
2437.00000   -0.06397
2437.50000   -0.06378
2438.00000   -0.06266
2438.50000   -0.06057
2439.00000   -0.05747
2439.50000   -0.05334
2440.00000   -0.04815
2440.50000   -0.04190
2441.00000   -0.03458
2441.50000   -0.02619
2442.00000   -0.01677
2442.50000   -0.00635
2443.00000    0.00501
2443.50000    0.01727
2444.00000    0.03033
2444.50000    0.04412
2445.00000    0.05853
2445.50000    0.07345
2446.00000    0.08878
2446.50000    0.10438
2447.00000    0.12013
2447.50000    0.13590
2448.00000    0.15156
2448.50000    0.16697
2449.00000    0.18201
2449.50000    0.19656
2450.00000    0.21050
2450.50000    0.22372
2451.00000    0.23612
2451.50000    0.24761
2452.00000    0.25811
2452.50000    0.26754
2453.00000    0.27587
2453.50000    0.28304
2454.00000    0.28903
2454.50000    0.29382
2455.00000    0.29742
2455.50000    0.29984
2456.00000    0.30113
2456.50000    0.30132
2457.00000    0.30047
2457.50000    0.29866
2458.00000    0.29597
2458.50000    0.29248
2459.00000    0.28829
2459.50000    0.28349
2460.00000    0.27817
2460.50000    0.27241
2461.00000    0.26628
2461.50000    0.25984
2462.00000    0.25313
2462.50000    0.24618
2463.00000    0.23900
2463.50000    0.23157
2464.00000    0.22389
2464.50000    0.21592
2465.00000    0.20762
2465.50000    0.19895
2466.00000    0.18987
2466.50000    0.18036
2467.00000    0.17040
2467.50000    0.16000
2468.00000    0.14918
2468.50000    0.13798
2469.00000    0.12647
2469.50000    0.11475
2470.00000    0.10292
2470.50000    0.09110
2471.00000    0.07945
2471.50000    0.06808
2472.00000    0.05715
2472.50000    0.04679
2473.00000    0.03712
2473.50000    0.02824
2474.00000    0.02023
2474.50000    0.01316
2475.00000    0.00706
2475.50000    0.00194
2476.00000   -0.00221
2476.50000   -0.00544
2477.00000   -0.00780
2477.50000   -0.00935
2478.00000   -0.01019
2478.50000   -0.01040
2479.00000   -0.01007
2479.50000   -0.00931
2480.00000   -0.00819
2480.50000   -0.00680
2481.00000   -0.00521
2481.50000   -0.00350
2482.00000   -0.00170
2482.50000    0.00013
2483.00000    0.00196
2483.50000    0.00377
2484.00000    0.00555
2484.50000    0.00729
2485.00000    0.00899
2485.50000    0.01065
2486.00000    0.01229
2486.50000    0.01390
2487.00000    0.01550
2487.50000    0.01708
2488.00000    0.01864
2488.50000    0.02018
2489.00000    0.02169
2489.50000    0.02315
2490.00000    0.02452
2490.50000    0.02578
2491.00000    0.02689
2491.50000    0.02781
2492.00000    0.02848
2492.50000    0.02886
2493.00000    0.02891
2493.50000    0.02859
2494.00000    0.02785
2494.50000    0.02666
2495.00000    0.02501
2495.50000    0.02288
2496.00000    0.02027
2496.50000    0.01719
2497.00000    0.01368
2497.50000    0.00976
2498.00000    0.00548
2498.50000    0.00090
2499.00000   -0.00392
2499.50000   -0.00889
2500.00000   -0.01394
2500.50000   -0.01899
2501.00000   -0.02394
2501.50000   -0.02871
2502.00000   -0.03319
2502.50000   -0.03730
2503.00000   -0.04095
2503.50000   -0.04406
2504.00000   -0.04655
2504.50000   -0.04836
2505.00000   -0.04942
2505.50000   -0.04971
2506.00000   -0.04920
2506.50000   -0.04787
2507.00000   -0.04575
2507.50000   -0.04287
2508.00000   -0.03928
2508.50000   -0.03507
2509.00000   -0.03031
2509.50000   -0.02513
2510.00000   -0.01963
2510.50000   -0.01394
2511.00000   -0.00820
2511.50000   -0.00252
2512.00000    0.00298
2512.50000    0.00818
2513.00000    0.01302
2513.50000    0.01741
2514.00000    0.02130
2514.50000    0.02467
2515.00000    0.02751
2515.50000    0.02983
2516.00000    0.03167
2516.50000    0.03305
2517.00000    0.03404
2517.50000    0.03469
2518.00000    0.03507
2518.50000    0.03522
2519.00000    0.03521
2519.50000    0.03509
2520.00000    0.03490
2520.50000    0.03467
2521.00000    0.03444
2521.50000    0.03423
2522.00000    0.03406
2522.50000    0.03395
2523.00000    0.03391
2523.50000    0.03394
2524.00000    0.03406
2524.50000    0.03427
2525.00000    0.03456
2525.50000    0.03492
2526.00000    0.03534
2526.50000    0.03579
2527.00000    0.03624
2527.50000    0.03662
2528.00000    0.03689
2528.50000    0.03697
2529.00000    0.03679
2529.50000    0.03627
2530.00000    0.03534
2530.50000    0.03393
2531.00000    0.03197
2531.50000    0.02943
2532.00000    0.02628
2532.50000    0.02252
2533.00000    0.01820
2533.50000    0.01336
2534.00000    0.00810
2534.50000    0.00252
2535.00000   -0.00324
2535.50000   -0.00905
2536.00000   -0.01474
2536.50000   -0.02018
2537.00000   -0.02520
2537.50000   -0.02969
2538.00000   -0.03353
2538.50000   -0.03664
2539.00000   -0.03896
2539.50000   -0.04047
2540.00000   -0.04117
2540.50000   -0.04110
2541.00000   -0.04031
2541.50000   -0.03889
2542.00000   -0.03692
2542.50000   -0.03451
2543.00000   -0.03175
2543.50000   -0.02874
2544.00000   -0.02558
2544.50000   -0.02234
2545.00000   -0.01908
2545.50000   -0.01586
2546.00000   -0.01273
2546.50000   -0.00971
2547.00000   -0.00683
2547.50000   -0.00411
2548.00000   -0.00159
2548.50000    0.00070
2549.00000    0.00273
2549.50000    0.00444
2550.00000    0.00578
2550.50000    0.00668
2551.00000    0.00708
2551.50000    0.00690
2552.00000    0.00608
2552.50000    0.00456
2553.00000    0.00231
2553.50000   -0.00070
2554.00000   -0.00446
2554.50000   -0.00894
2555.00000   -0.01407
2555.50000   -0.01976
2556.00000   -0.02588
2556.50000   -0.03231
2557.00000   -0.03887
2557.50000   -0.04539
2558.00000   -0.05170
2558.50000   -0.05761
2559.00000   -0.06295
2559.50000   -0.06757
2560.00000   -0.07135
2560.50000   -0.07417
2561.00000   -0.07597
2561.50000   -0.07670
2562.00000   -0.07634
2562.50000   -0.07492
2563.00000   -0.07247
2563.50000   -0.06906
2564.00000   -0.06478
2564.50000   -0.05973
2565.00000   -0.05402
2565.50000   -0.04776
2566.00000   -0.04106
2566.50000   -0.03405
2567.00000   -0.02684
2567.50000   -0.01951
2568.00000   -0.01217
2568.50000   -0.00490
2569.00000    0.00221
2569.50000    0.00912
2570.00000    0.01574
2570.50000    0.02203
2571.00000    0.02793
2571.50000    0.03341
2572.00000    0.03841
2572.50000    0.04289
2573.00000    0.04682
2573.50000    0.05014
2574.00000    0.05283
2574.50000    0.05483
2575.00000    0.05611
2575.50000    0.05663
2576.00000    0.05636
2576.50000    0.05526
2577.00000    0.05331
2577.50000    0.05050
2578.00000    0.04682
2578.50000    0.04230
2579.00000    0.03695
2579.50000    0.03084
2580.00000    0.02404
2580.50000    0.01665
2581.00000    0.00880
2581.50000    0.00062
2582.00000   -0.00772
2582.50000   -0.01603
2583.00000   -0.02411
2583.50000   -0.03176
2584.00000   -0.03880
2584.50000   -0.04502
2585.00000   -0.05025
2585.50000   -0.05436
2586.00000   -0.05722
2586.50000   -0.05876
2587.00000   -0.05894
2587.50000   -0.05779
2588.00000   -0.05534
2588.50000   -0.05170
2589.00000   -0.04701
2589.50000   -0.04142
2590.00000   -0.03514
2590.50000   -0.02836
2591.00000   -0.02130
2591.50000   -0.01417
2592.00000   -0.00716
2592.50000   -0.00046
2593.00000    0.00578
2593.50000    0.01143
2594.00000    0.01639
2594.50000    0.02060
2595.00000    0.02402
2595.50000    0.02663
2596.00000    0.02846
2596.50000    0.02953
2597.00000    0.02988
2597.50000    0.02957
2598.00000    0.02866
2598.50000    0.02721
2599.00000    0.02528
2599.50000    0.02294
2600.00000    0.02023
2600.50000    0.01722
2601.00000    0.01398
2601.50000    0.01055
2602.00000    0.00701
2602.50000    0.00343
2603.00000   -0.00013
2603.50000   -0.00357
2604.00000   -0.00681
2604.50000   -0.00978
2605.00000   -0.01238
2605.50000   -0.01453
2606.00000   -0.01617
2606.50000   -0.01722
2607.00000   -0.01764
2607.50000   -0.01740
2608.00000   -0.01650
2608.50000   -0.01494
2609.00000   -0.01276
2609.50000   -0.01003
2610.00000   -0.00682
2610.50000   -0.00322
2611.00000    0.00063
2611.50000    0.00463
2612.00000    0.00864
2612.50000    0.01252
2613.00000    0.01615
2613.50000    0.01939
2614.00000    0.02215
2614.50000    0.02432
2615.00000    0.02584
2615.50000    0.02664
2616.00000    0.02670
2616.50000    0.02601
2617.00000    0.02459
2617.50000    0.02248
2618.00000    0.01974
2618.50000    0.01645
2619.00000    0.01271
2619.50000    0.00861
2620.00000    0.00427
2620.50000   -0.00019
2621.00000   -0.00466
2621.50000   -0.00904
2622.00000   -0.01320
2622.50000   -0.01706
2623.00000   -0.02051
2623.50000   -0.02348
2624.00000   -0.02589
2624.50000   -0.02767
2625.00000   -0.02876
2625.50000   -0.02909
2626.00000   -0.02861
2626.50000   -0.02727
2627.00000   -0.02500
2627.50000   -0.02176
2628.00000   -0.01750
2628.50000   -0.01216
2629.00000   -0.00569
2629.50000    0.00193
2630.00000    0.01073
2630.50000    0.02073
2631.00000    0.03192
2631.50000    0.04426
2632.00000    0.05772
2632.50000    0.07222
2633.00000    0.08767
2633.50000    0.10395
2634.00000    0.12093
2634.50000    0.13847
2635.00000    0.15642
2635.50000    0.17463
2636.00000    0.19295
2636.50000    0.21126
2637.00000    0.22945
2637.50000    0.24745
2638.00000    0.26520
2638.50000    0.28270
2639.00000    0.29999
2639.50000    0.31715
2640.00000    0.33430
2640.50000    0.35161
2641.00000    0.36928
2641.50000    0.38756
2642.00000    0.40672
2642.50000    0.42705
2643.00000    0.44889
2643.50000    0.47256
2644.00000    0.49841
2644.50000    0.52679
2645.00000    0.55805
2645.50000    0.59252
2646.00000    0.63052
2646.50000    0.67238
2647.00000    0.71837
2647.50000    0.76876
2648.00000    0.82380
2648.50000    0.88370
2649.00000    0.94864
2649.50000    1.01878
2650.00000    1.09424
2650.50000    1.17514
2651.00000    1.26155
2651.50000    1.35353
2652.00000    1.45113
2652.50000    1.55437
2653.00000    1.66327
2653.50000    1.77784
2654.00000    1.89808
2654.50000    2.02401
2655.00000    2.15561
2655.50000    2.29290
2656.00000    2.43585
2656.50000    2.58447
2657.00000    2.73873
2657.50000    2.89859
2658.00000    3.06400
2658.50000    3.23488
2659.00000    3.41113
2659.50000    3.59261
2660.00000    3.77914
2660.50000    3.97051
2661.00000    4.16648
2661.50000    4.36675
2662.00000    4.57100
2662.50000    4.77886
2663.00000    4.98995
2663.50000    5.20384
2664.00000    5.42008
2664.50000    5.63822
2665.00000    5.85775
2665.50000    6.07818
2666.00000    6.29899
2666.50000    6.51964
2667.00000    6.73955
2667.50000    6.95816
2668.00000    7.17486
2668.50000    7.38900
2669.00000    7.59993
2669.50000    7.80695
2670.00000    8.00933
2670.50000    8.20631
2671.00000    8.39709
2671.50000    8.58088
2672.00000    8.75684
2672.50000    8.92415
2673.00000    9.08199
2673.50000    9.22954
2674.00000    9.36603
2674.50000    9.49075
2675.00000    9.60300
2675.50000    9.70220
2676.00000    9.78781
2676.50000    9.85939
2677.00000    9.91661
2677.50000    9.95920
2678.00000    9.98702
2678.50000   10.00000
2679.00000    9.99816
2679.50000    9.98162
2680.00000    9.95054
2680.50000    9.90519
2681.00000    9.84586
2681.50000    9.77292
2682.00000    9.68675
2682.50000    9.58781
2683.00000    9.47655
2683.50000    9.35347
2684.00000    9.21909
2684.50000    9.07396
2685.00000    8.91863
2685.50000    8.75369
2686.00000    8.57974
2686.50000    8.39743
2687.00000    8.20739
2687.50000    8.01031
2688.00000    7.80689
2688.50000    7.59784
2689.00000    7.38392
2689.50000    7.16587
2690.00000    6.94449
2690.50000    6.72053
2691.00000    6.49481
2691.50000    6.26808
2692.00000    6.04115
2692.50000    5.81475
2693.00000    5.58964
2693.50000    5.36653
2694.00000    5.14609
2694.50000    4.92898
2695.00000    4.71577
2695.50000    4.50704
2696.00000    4.30326
2696.50000    4.10488
2697.00000    3.91228
2697.50000    3.72579
2698.00000    3.54567
2698.50000    3.37212
2699.00000    3.20528
2699.50000    3.04525
2700.00000    2.89203
2700.50000    2.74562
2701.00000    2.60594
2701.50000    2.47286
2702.00000    2.34623
2702.50000    2.22586
2703.00000    2.11155
2703.50000    2.00305
2704.00000    1.90013
2704.50000    1.80253
2705.00000    1.71001
2705.50000    1.62231
2706.00000    1.53920
2706.50000    1.46045
2707.00000    1.38585
2707.50000    1.31521
2708.00000    1.24832
2708.50000    1.18501
2709.00000    1.12512
2709.50000    1.06847
2710.00000    1.01490
2710.50000    0.96423
2711.00000    0.91628
2711.50000    0.87088
2712.00000    0.82782
2712.50000    0.78690
2713.00000    0.74791
2713.50000    0.71063
2714.00000    0.67484
2714.50000    0.64033
2715.00000    0.60691
2715.50000    0.57440
2716.00000    0.54263
2716.50000    0.51147
2717.00000    0.48083
2717.50000    0.45064
2718.00000    0.42089
2718.50000    0.39159
2719.00000    0.36278
2719.50000    0.33454
2720.00000    0.30698
2720.50000    0.28022
2721.00000    0.25440
2721.50000    0.22965
2722.00000    0.20612
2722.50000    0.18394
2723.00000    0.16323
2723.50000    0.14407
2724.00000    0.12654
2724.50000    0.11070
2725.00000    0.09657
2725.50000    0.08415
2726.00000    0.07340
2726.50000    0.06430
2727.00000    0.05678
2727.50000    0.05075
2728.00000    0.04613
2728.50000    0.04283
2729.00000    0.04073
2729.50000    0.03972
2730.00000    0.03968
2730.50000    0.04051
2731.00000    0.04206
2731.50000    0.04422
2732.00000    0.04687
2732.50000    0.04987
2733.00000    0.05310
2733.50000    0.05643
2734.00000    0.05973
2734.50000    0.06289
2735.00000    0.06579
2735.50000    0.06833
2736.00000    0.07041
2736.50000    0.07195
2737.00000    0.07287
2737.50000    0.07312
2738.00000    0.07265
2738.50000    0.07143
2739.00000    0.06944
2739.50000    0.06667
2740.00000    0.06310
2740.50000    0.05876
2741.00000    0.05366
2741.50000    0.04780
2742.00000    0.04123
2742.50000    0.03396
2743.00000    0.02603
2743.50000    0.01750
2744.00000    0.00842
2744.50000   -0.00114
2745.00000   -0.01109
2745.50000   -0.02133
2746.00000   -0.03175
2746.50000   -0.04222
2747.00000   -0.05258
2747.50000   -0.06268
2748.00000   -0.07234
2748.50000   -0.08140
2749.00000   -0.08967
2749.50000   -0.09700
2750.00000   -0.10323
2750.50000   -0.10823
2751.00000   -0.11189
2751.50000   -0.11414
2752.00000   -0.11495
2752.50000   -0.11430
2753.00000   -0.11225
2753.50000   -0.10886
2754.00000   -0.10426
2754.50000   -0.09859
2755.00000   -0.09203
2755.50000   -0.08477
2756.00000   -0.07705
2756.50000   -0.06906
2757.00000   -0.06104
2757.50000   -0.05318
2758.00000   -0.04570
2758.50000   -0.03876
2759.00000   -0.03250
2759.50000   -0.02704
2760.00000   -0.02247
2760.50000   -0.01883
2761.00000   -0.01614
2761.50000   -0.01438
2762.00000   -0.01351
2762.50000   -0.01347
2763.00000   -0.01418
2763.50000   -0.01554
2764.00000   -0.01746
2764.50000   -0.01982
2765.00000   -0.02252
2765.50000   -0.02547
2766.00000   -0.02856
2766.50000   -0.03172
2767.00000   -0.03487
2767.50000   -0.03793
2768.00000   -0.04085
2768.50000   -0.04356
2769.00000   -0.04601
2769.50000   -0.04813
2770.00000   -0.04987
2770.50000   -0.05116
2771.00000   -0.05193
2771.50000   -0.05210
2772.00000   -0.05161
2772.50000   -0.05036
2773.00000   -0.04829
2773.50000   -0.04532
2774.00000   -0.04139
2774.50000   -0.03645
2775.00000   -0.03049
2775.50000   -0.02349
2776.00000   -0.01547
2776.50000   -0.00649
2777.00000    0.00340
2777.50000    0.01409
2778.00000    0.02546
2778.50000    0.03737
2779.00000    0.04964
2779.50000    0.06213
2780.00000    0.07463
2780.50000    0.08698
2781.00000    0.09900
2781.50000    0.11051
2782.00000    0.12135
2782.50000    0.13139
2783.00000    0.14048
2783.50000    0.14853
2784.00000    0.15543
2784.50000    0.16111
2785.00000    0.16551
2785.50000    0.16860
2786.00000    0.17036
2786.50000    0.17079
2787.00000    0.16990
2787.50000    0.16773
2788.00000    0.16434
2788.50000    0.15981
2789.00000    0.15422
2789.50000    0.14770
2790.00000    0.14036
2790.50000    0.13235
2791.00000    0.12383
2791.50000    0.11494
2792.00000    0.10587
2792.50000    0.09675
2793.00000    0.08774
2793.50000    0.07897
2794.00000    0.07057
2794.50000    0.06261
2795.00000    0.05518
2795.50000    0.04831
2796.00000    0.04202
2796.50000    0.03632
2797.00000    0.03117
2797.50000    0.02655
2798.00000    0.02241
2798.50000    0.01872
2799.00000    0.01544
2799.50000    0.01255
2800.00000    0.01004
2800.50000    0.00793
2801.00000    0.00627
2801.50000    0.00511
2802.00000    0.00455
2802.50000    0.00468
2803.00000    0.00562
2803.50000    0.00748
2804.00000    0.01038
2804.50000    0.01440
2805.00000    0.01963
2805.50000    0.02610
2806.00000    0.03383
2806.50000    0.04278
2807.00000    0.05288
2807.50000    0.06401
2808.00000    0.07601
2808.50000    0.08870
2809.00000    0.10184
2809.50000    0.11520
2810.00000    0.12852
2810.50000    0.14154
2811.00000    0.15402
2811.50000    0.16572
2812.00000    0.17643
2812.50000    0.18598
2813.00000    0.19422
2813.50000    0.20106
2814.00000    0.20643
2814.50000    0.21030
2815.00000    0.21268
2815.50000    0.21363
2816.00000    0.21319
2816.50000    0.21147
2817.00000    0.20855
2817.50000    0.20454
2818.00000    0.19955
2818.50000    0.19367
2819.00000    0.18700
2819.50000    0.17961
2820.00000    0.17156
2820.50000    0.16291
2821.00000    0.15369
2821.50000    0.14393
2822.00000    0.13365
2822.50000    0.12287
2823.00000    0.11160
2823.50000    0.09987
2824.00000    0.08770
2824.50000    0.07513
2825.00000    0.06222
2825.50000    0.04902
2826.00000    0.03563
2826.50000    0.02213
2827.00000    0.00862
2827.50000   -0.00477
2828.00000   -0.01792
2828.50000   -0.03071
2829.00000   -0.04301
2829.50000   -0.05470
2830.00000   -0.06566
2830.50000   -0.07577
2831.00000   -0.08495
2831.50000   -0.09311
2832.00000   -0.10019
2832.50000   -0.10613
2833.00000   -0.11092
2833.50000   -0.11453
2834.00000   -0.11698
2834.50000   -0.11831
2835.00000   -0.11854
2835.50000   -0.11775
2836.00000   -0.11601
2836.50000   -0.11342
2837.00000   -0.11006
2837.50000   -0.10605
2838.00000   -0.10150
2838.50000   -0.09652
2839.00000   -0.09122
2839.50000   -0.08573
2840.00000   -0.08014
2840.50000   -0.07455
2841.00000   -0.06905
2841.50000   -0.06369
2842.00000   -0.05855
2842.50000   -0.05365
2843.00000   -0.04901
2843.50000   -0.04462
2844.00000   -0.04046
2844.50000   -0.03649
2845.00000   -0.03263
2845.50000   -0.02881
2846.00000   -0.02493
2846.50000   -0.02090
2847.00000   -0.01662
2847.50000   -0.01198
2848.00000   -0.00691
2848.50000   -0.00133
2849.00000    0.00479
2849.50000    0.01148
2850.00000    0.01872
2850.50000    0.02645
2851.00000    0.03457
2851.50000    0.04296
2852.00000    0.05145
2852.50000    0.05985
2853.00000    0.06796
2853.50000    0.07556
2854.00000    0.08243
2854.50000    0.08836
2855.00000    0.09318
2855.50000    0.09675
2856.00000    0.09896
2856.50000    0.09976
2857.00000    0.09917
2857.50000    0.09724
2858.00000    0.09409
2858.50000    0.08989
2859.00000    0.08483
2859.50000    0.07915
2860.00000    0.07309
2860.50000    0.06690
2861.00000    0.06081
2861.50000    0.05502
2862.00000    0.04971
2862.50000    0.04501
2863.00000    0.04099
2863.50000    0.03767
2864.00000    0.03504
2864.50000    0.03302
2865.00000    0.03153
2865.50000    0.03043
2866.00000    0.02960
2866.50000    0.02889
2867.00000    0.02817
2867.50000    0.02735
2868.00000    0.02634
2868.50000    0.02508
2869.00000    0.02357
2869.50000    0.02181
2870.00000    0.01984
2870.50000    0.01772
2871.00000    0.01553
2871.50000    0.01335
2872.00000    0.01126
2872.50000    0.00932
2873.00000    0.00759
2873.50000    0.00610
2874.00000    0.00488
2874.50000    0.00392
2875.00000    0.00319
2875.50000    0.00266
2876.00000    0.00227
2876.50000    0.00198
2877.00000    0.00172
2877.50000    0.00145
2878.00000    0.00115
2878.50000    0.00078
2879.00000    0.00034
2879.50000   -0.00015
2880.00000   -0.00066
2880.50000   -0.00115
2881.00000   -0.00158
2881.50000   -0.00187
2882.00000   -0.00197
2882.50000   -0.00182
2883.00000   -0.00138
2883.50000   -0.00061
2884.00000    0.00051
2884.50000    0.00198
2885.00000    0.00380
2885.50000    0.00592
2886.00000    0.00829
2886.50000    0.01084
2887.00000    0.01347
2887.50000    0.01608
2888.00000    0.01855
2888.50000    0.02076
2889.00000    0.02257
2889.50000    0.02384
2890.00000    0.02446
2890.50000    0.02428
2891.00000    0.02321
2891.50000    0.02114
2892.00000    0.01800
2892.50000    0.01374
2893.00000    0.00833
2893.50000    0.00178
2894.00000   -0.00589
2894.50000   -0.01461
2895.00000   -0.02429
2895.50000   -0.03483
2896.00000   -0.04612
2896.50000   -0.05801
2897.00000   -0.07037
2897.50000   -0.08308
2898.00000   -0.09603
2898.50000   -0.10912
2899.00000   -0.12227
2899.50000   -0.13544
