1200.50000    0.05278
1201.00000    0.03033
1201.50000    0.00814
1202.00000   -0.01357
1202.50000   -0.03452
1203.00000   -0.05441
1203.50000   -0.07293
1204.00000   -0.08975
1204.50000   -0.10458
1205.00000   -0.11713
1205.50000   -0.12718
1206.00000   -0.13454
1206.50000   -0.13906
1207.00000   -0.14069
1207.50000   -0.13939
1208.00000   -0.13522
1208.50000   -0.12829
1209.00000   -0.11875
1209.50000   -0.10680
1210.00000   -0.09269
1210.50000   -0.07670
1211.00000   -0.05912
1211.50000   -0.04026
1212.00000   -0.02041
1212.50000    0.00012
1213.00000    0.02105
1213.50000    0.04211
1214.00000    0.06306
1214.50000    0.08368
1215.00000    0.10379
1215.50000    0.12321
1216.00000    0.14179
1216.50000    0.15942
1217.00000    0.17598
1217.50000    0.19136
1218.00000    0.20547
1218.50000    0.21819
1219.00000    0.22943
1219.50000    0.23907
1220.00000    0.24698
1220.50000    0.25302
1221.00000    0.25705
1221.50000    0.25891
1222.00000    0.25843
1222.50000    0.25547
1223.00000    0.24986
1223.50000    0.24146
1224.00000    0.23016
1224.50000    0.21585
1225.00000    0.19848
1225.50000    0.17803
1226.00000    0.15452
1226.50000    0.12805
1227.00000    0.09874
1227.50000    0.06679
1228.00000    0.03246
1228.50000   -0.00395
1229.00000   -0.04206
1229.50000   -0.08146
1230.00000   -0.12169
1230.50000   -0.16225
1231.00000   -0.20263
1231.50000   -0.24229
1232.00000   -0.28066
1232.50000   -0.31722
1233.00000   -0.35142
1233.50000   -0.38277
1234.00000   -0.41079
1234.50000   -0.43506
1235.00000   -0.45522
1235.50000   -0.47095
1236.00000   -0.48204
1236.50000   -0.48830
1237.00000   -0.48967
1237.50000   -0.48611
1238.00000   -0.47770
1238.50000   -0.46457
1239.00000   -0.44693
1239.50000   -0.42503
1240.00000   -0.39920
1240.50000   -0.36982
1241.00000   -0.33729
1241.50000   -0.30207
1242.00000   -0.26464
1242.50000   -0.22549
1243.00000   -0.18512
1243.50000   -0.14405
1244.00000   -0.10277
1244.50000   -0.06179
1245.00000   -0.02158
1245.50000    0.01740
1246.00000    0.05474
1246.50000    0.09003
1247.00000    0.12291
1247.50000    0.15308
1248.00000    0.18028
1248.50000    0.20427
1249.00000    0.22492
1249.50000    0.24212
1250.00000    0.25584
1250.50000    0.26612
1251.00000    0.27307
1251.50000    0.27684
1252.00000    0.27770
1252.50000    0.27595
1253.00000    0.27195
1253.50000    0.26612
1254.00000    0.25892
1254.50000    0.25083
1255.00000    0.24236
1255.50000    0.23401
1256.00000    0.22626
1256.50000    0.21956
1257.00000    0.21433
1257.50000    0.21089
1258.00000    0.20952
1258.50000    0.21039
1259.00000    0.21357
1259.50000    0.21905
1260.00000    0.22668
1260.50000    0.23623
1261.00000    0.24738
1261.50000    0.25971
1262.00000    0.27276
1262.50000    0.28600
1263.00000    0.29886
1263.50000    0.31079
1264.00000    0.32123
1264.50000    0.32965
1265.00000    0.33558
1265.50000    0.33861
1266.00000    0.33841
1266.50000    0.33475
1267.00000    0.32750
1267.50000    0.31663
1268.00000    0.30221
1268.50000    0.28439
1269.00000    0.26345
1269.50000    0.23970
1270.00000    0.21353
1270.50000    0.18537
1271.00000    0.15568
1271.50000    0.12492
1272.00000    0.09355
1272.50000    0.06200
1273.00000    0.03069
1273.50000   -0.00003
1274.00000   -0.02984
1274.50000   -0.05847
1275.00000   -0.08571
1275.50000   -0.11141
1276.00000   -0.13545
1276.50000   -0.15776
1277.00000   -0.17831
1277.50000   -0.19708
1278.00000   -0.21408
1278.50000   -0.22932
1279.00000   -0.24282
1279.50000   -0.25456
1280.00000   -0.26456
1280.50000   -0.27278
1281.00000   -0.27919
1281.50000   -0.28374
1282.00000   -0.28637
1282.50000   -0.28700
1283.00000   -0.28557
1283.50000   -0.28201
1284.00000   -0.27627
1284.50000   -0.26831
1285.00000   -0.25812
1285.50000   -0.24575
1286.00000   -0.23125
1286.50000   -0.21474
1287.00000   -0.19638
1287.50000   -0.17638
1288.00000   -0.15498
1288.50000   -0.13248
1289.00000   -0.10921
1289.50000   -0.08553
1290.00000   -0.06180
1290.50000   -0.03843
1291.00000   -0.01580
1291.50000    0.00571
1292.00000    0.02574
1292.50000    0.04396
1293.00000    0.06009
1293.50000    0.07389
1294.00000    0.08520
1294.50000    0.09388
1295.00000    0.09991
1295.50000    0.10329
1296.00000    0.10410
1296.50000    0.10248
1297.00000    0.09863
1297.50000    0.09277
1298.00000    0.08518
1298.50000    0.07614
1299.00000    0.06597
1299.50000    0.05496
1300.00000    0.04343
1300.50000    0.03165
1301.00000    0.01989
1301.50000    0.00835
1302.00000   -0.00276
1302.50000   -0.01332
1303.00000   -0.02320
1303.50000   -0.03235
1304.00000   -0.04074
1304.50000   -0.04837
1305.00000   -0.05526
1305.50000   -0.06145
1306.00000   -0.06700
1306.50000   -0.07195
1307.00000   -0.07638
1307.50000   -0.08033
1308.00000   -0.08384
1308.50000   -0.08694
1309.00000   -0.08967
1309.50000   -0.09202
1310.00000   -0.09403
1310.50000   -0.09568
1311.00000   -0.09699
1311.50000   -0.09798
1312.00000   -0.09868
1312.50000   -0.09914
1313.00000   -0.09943
1313.50000   -0.09961
1314.00000   -0.09981
1314.50000   -0.10012
1315.00000   -0.10069
1315.50000   -0.10163
1316.00000   -0.10307
1316.50000   -0.10512
1317.00000   -0.10788
1317.50000   -0.11139
1318.00000   -0.11568
1318.50000   -0.12072
1319.00000   -0.12641
1319.50000   -0.13262
1320.00000   -0.13914
1320.50000   -0.14572
1321.00000   -0.15205
1321.50000   -0.15780
1322.00000   -0.16257
1322.50000   -0.16600
1323.00000   -0.16768
1323.50000   -0.16726
1324.00000   -0.16441
1324.50000   -0.15883
1325.00000   -0.15030
1325.50000   -0.13868
1326.00000   -0.12391
1326.50000   -0.10601
1327.00000   -0.08510
1327.50000   -0.06139
1328.00000   -0.03517
1328.50000   -0.00681
1329.00000    0.02328
1329.50000    0.05463
1330.00000    0.08676
1330.50000    0.11919
1331.00000    0.15147
1331.50000    0.18316
1332.00000    0.21392
1332.50000    0.24346
1333.00000    0.27159
1333.50000    0.29820
1334.00000    0.32328
1334.50000    0.34692
1335.00000    0.36931
1335.50000    0.39071
1336.00000    0.41144
1336.50000    0.43189
1337.00000    0.45246
1337.50000    0.47355
1338.00000    0.49558
1338.50000    0.51888
1339.00000    0.54377
1339.50000    0.57044
1340.00000    0.59905
1340.50000    0.62959
1341.00000    0.66201
1341.50000    0.69611
1342.00000    0.73159
1342.50000    0.76808
1343.00000    0.80510
1343.50000    0.84212
1344.00000    0.87856
1344.50000    0.91382
1345.00000    0.94729
1345.50000    0.97837
1346.00000    1.00651
1346.50000    1.03122
1347.00000    1.05207
1347.50000    1.06873
1348.00000    1.08094
1348.50000    1.08855
1349.00000    1.09151
1349.50000    1.08985
1350.00000    1.08366
1350.50000    1.07313
1351.00000    1.05851
1351.50000    1.04006
1352.00000    1.01811
1352.50000    0.99300
1353.00000    0.96506
1353.50000    0.93465
1354.00000    0.90207
1354.50000    0.86766
1355.00000    0.83169
1355.50000    0.79444
1356.00000    0.75614
1356.50000    0.71702
1357.00000    0.67730
1357.50000    0.63717
1358.00000    0.59683
1358.50000    0.55647
1359.00000    0.51628
1359.50000    0.47646
1360.00000    0.43721
1360.50000    0.39875
1361.00000    0.36127
1361.50000    0.32499
1362.00000    0.29008
1362.50000    0.25675
1363.00000    0.22514
1363.50000    0.19539
1364.00000    0.16759
1364.50000    0.14182
1365.00000    0.11809
1365.50000    0.09638
1366.00000    0.07663
1366.50000    0.05873
1367.00000    0.04255
1367.50000    0.02793
1368.00000    0.01469
1368.50000    0.00263
1369.00000   -0.00845
1369.50000   -0.01873
1370.00000   -0.02838
1370.50000   -0.03755
1371.00000   -0.04636
1371.50000   -0.05489
1372.00000   -0.06318
1372.50000   -0.07123
1373.00000   -0.07898
1373.50000   -0.08638
1374.00000   -0.09329
1374.50000   -0.09959
1375.00000   -0.10511
1375.50000   -0.10967
1376.00000   -0.11312
1376.50000   -0.11527
1377.00000   -0.11598
1377.50000   -0.11511
1378.00000   -0.11258
1378.50000   -0.10831
1379.00000   -0.10229
1379.50000   -0.09451
1380.00000   -0.08506
1380.50000   -0.07402
1381.00000   -0.06155
1381.50000   -0.04783
1382.00000   -0.03306
1382.50000   -0.01750
1383.00000   -0.00140
1383.50000    0.01495
1384.00000    0.03126
1384.50000    0.04726
1385.00000    0.06266
1385.50000    0.07721
1386.00000    0.09067
1386.50000    0.10283
1387.00000    0.11351
1387.50000    0.12256
1388.00000    0.12989
1388.50000    0.13544
1389.00000    0.13917
1389.50000    0.14110
1390.00000    0.14128
1390.50000    0.13980
1391.00000    0.13676
1391.50000    0.13230
1392.00000    0.12657
1392.50000    0.11972
1393.00000    0.11191
1393.50000    0.10331
1394.00000    0.09406
1394.50000    0.08431
1395.00000    0.07417
1395.50000    0.06375
1396.00000    0.05315
1396.50000    0.04242
1397.00000    0.03162
1397.50000    0.02080
1398.00000    0.00999
1398.50000   -0.00079
1399.00000   -0.01151
1399.50000   -0.02211
1400.00000   -0.03257
1400.50000   -0.04281
1401.00000   -0.05276
1401.50000   -0.06230
1402.00000   -0.07132
1402.50000   -0.07966
1403.00000   -0.08718
1403.50000   -0.09368
1404.00000   -0.09901
1404.50000   -0.10298
1405.00000   -0.10542
1405.50000   -0.10618
1406.00000   -0.10516
1406.50000   -0.10227
1407.00000   -0.09746
1407.50000   -0.09076
1408.00000   -0.08223
1408.50000   -0.07200
1409.00000   -0.06025
1409.50000   -0.04723
1410.00000   -0.03323
1410.50000   -0.01861
1411.00000   -0.00375
1411.50000    0.01094
1412.00000    0.02502
1412.50000    0.03806
1413.00000    0.04964
1413.50000    0.05936
1414.00000    0.06686
1414.50000    0.07183
1415.00000    0.07404
1415.50000    0.07333
1416.00000    0.06959
1416.50000    0.06285
1417.00000    0.05317
1417.50000    0.04075
1418.00000    0.02583
1418.50000    0.00877
1419.00000   -0.01005
1419.50000   -0.03016
1420.00000   -0.05105
1420.50000   -0.07221
1421.00000   -0.09308
1421.50000   -0.11314
1422.00000   -0.13190
1422.50000   -0.14890
1423.00000   -0.16373
1423.50000   -0.17608
1424.00000   -0.18569
1424.50000   -0.19243
1425.00000   -0.19624
1425.50000   -0.19715
1426.00000   -0.19531
1426.50000   -0.19095
1427.00000   -0.18436
1427.50000   -0.17593
1428.00000   -0.16607
1428.50000   -0.15526
1429.00000   -0.14397
1429.50000   -0.13268
1430.00000   -0.12185
1430.50000   -0.11189
1431.00000   -0.10316
1431.50000   -0.09594
1432.00000   -0.09044
1432.50000   -0.08676
1433.00000   -0.08491
1433.50000   -0.08478
1434.00000   -0.08619
1434.50000   -0.08887
1435.00000   -0.09244
1435.50000   -0.09648
1436.00000   -0.10050
1436.50000   -0.10400
1437.00000   -0.10643
1437.50000   -0.10726
1438.00000   -0.10598
1438.50000   -0.10213
1439.00000   -0.09529
1439.50000   -0.08514
1440.00000   -0.07141
1440.50000   -0.05396
1441.00000   -0.03273
1441.50000   -0.00779
1442.00000    0.02070
1442.50000    0.05249
1443.00000    0.08723
1443.50000    0.12447
1444.00000    0.16373
1444.50000    0.20445
1445.00000    0.24605
1445.50000    0.28791
1446.00000    0.32944
1446.50000    0.37004
1447.00000    0.40917
1447.50000    0.44630
1448.00000    0.48101
1448.50000    0.51292
1449.00000    0.54174
1449.50000    0.56728
1450.00000    0.58942
1450.50000    0.60814
1451.00000    0.62351
1451.50000    0.63567
1452.00000    0.64480
1452.50000    0.65116
1453.00000    0.65503
1453.50000    0.65672
1454.00000    0.65653
1454.50000    0.65477
1455.00000    0.65170
1455.50000    0.64758
1456.00000    0.64258
1456.50000    0.63686
1457.00000    0.63049
1457.50000    0.62351
1458.00000    0.61588
1458.50000    0.60754
1459.00000    0.59835
1459.50000    0.58817
1460.00000    0.57684
1460.50000    0.56417
1461.00000    0.55001
1461.50000    0.53421
1462.00000    0.51666
1462.50000    0.49730
1463.00000    0.47611
1463.50000    0.45313
1464.00000    0.42845
1464.50000    0.40220
1465.00000    0.37459
1465.50000    0.34584
1466.00000    0.31621
1466.50000    0.28598
1467.00000    0.25543
1467.50000    0.22485
1468.00000    0.19450
1468.50000    0.16463
1469.00000    0.13545
1469.50000    0.10714
1470.00000    0.07984
1470.50000    0.05364
1471.00000    0.02862
1471.50000    0.00482
1472.00000   -0.01775
1472.50000   -0.03907
1473.00000   -0.05911
1473.50000   -0.07787
1474.00000   -0.09529
1474.50000   -0.11131
1475.00000   -0.12584
1475.50000   -0.13875
1476.00000   -0.14989
1476.50000   -0.15909
1477.00000   -0.16616
1477.50000   -0.17092
1478.00000   -0.17319
1478.50000   -0.17280
1479.00000   -0.16962
1479.50000   -0.16359
1480.00000   -0.15467
1480.50000   -0.14294
1481.00000   -0.12850
1481.50000   -0.11157
1482.00000   -0.09243
1482.50000   -0.07142
1483.00000   -0.04895
1483.50000   -0.02547
1484.00000   -0.00148
1484.50000    0.02254
1485.00000    0.04609
1485.50000    0.06868
1486.00000    0.08990
1486.50000    0.10935
1487.00000    0.12672
1487.50000    0.14177
1488.00000    0.15435
1488.50000    0.16437
1489.00000    0.17184
1489.50000    0.17683
1490.00000    0.17950
1490.50000    0.18002
1491.00000    0.17863
1491.50000    0.17556
1492.00000    0.17108
1492.50000    0.16542
1493.00000    0.15878
1493.50000    0.15134
1494.00000    0.14322
1494.50000    0.13452
1495.00000    0.12526
1495.50000    0.11543
1496.00000    0.10499
1496.50000    0.09384
1497.00000    0.08190
1497.50000    0.06906
1498.00000    0.05524
1498.50000    0.04038
1499.00000    0.02446
1499.50000    0.00750
1500.00000   -0.01040
1500.50000   -0.02908
1501.00000   -0.04828
1501.50000   -0.06772
1502.00000   -0.08701
1502.50000   -0.10571
1503.00000   -0.12334
1503.50000   -0.13940
1504.00000   -0.15337
1504.50000   -0.16473
1505.00000   -0.17300
1505.50000   -0.17773
1506.00000   -0.17856
1506.50000   -0.17520
1507.00000   -0.16746
1507.50000   -0.15525
1508.00000   -0.13862
1508.50000   -0.11772
1509.00000   -0.09282
1509.50000   -0.06431
1510.00000   -0.03269
1510.50000    0.00147
1511.00000    0.03749
1511.50000    0.07467
1512.00000    0.11226
1512.50000    0.14952
1513.00000    0.18570
1513.50000    0.22010
1514.00000    0.25209
1514.50000    0.28109
1515.00000    0.30662
1515.50000    0.32828
1516.00000    0.34580
1516.50000    0.35900
1517.00000    0.36777
1517.50000    0.37215
1518.00000    0.37222
1518.50000    0.36814
1519.00000    0.36014
1519.50000    0.34848
1520.00000    0.33344
1520.50000    0.31532
1521.00000    0.29440
1521.50000    0.27096
1522.00000    0.24524
1522.50000    0.21745
1523.00000    0.18777
1523.50000    0.15635
1524.00000    0.12330
1524.50000    0.08872
1525.00000    0.05269
1525.50000    0.01528
1526.00000   -0.02340
1526.50000   -0.06325
1527.00000   -0.10412
1527.50000   -0.14584
1528.00000   -0.18817
1528.50000   -0.23083
1529.00000   -0.27350
1529.50000   -0.31579
1530.00000   -0.35729
1530.50000   -0.39752
1531.00000   -0.43602
1531.50000   -0.47228
1532.00000   -0.50580
1532.50000   -0.53611
1533.00000   -0.56274
1533.50000   -0.58530
1534.00000   -0.60342
1534.50000   -0.61684
1535.00000   -0.62533
1535.50000   -0.62876
1536.00000   -0.62709
1536.50000   -0.62034
1537.00000   -0.60864
1537.50000   -0.59216
1538.00000   -0.57118
1538.50000   -0.54603
1539.00000   -0.51707
1539.50000   -0.48475
1540.00000   -0.44954
1540.50000   -0.41193
1541.00000   -0.37243
1541.50000   -0.33159
1542.00000   -0.28992
1542.50000   -0.24797
1543.00000   -0.20623
1543.50000   -0.16522
1544.00000   -0.12539
1544.50000   -0.08720
1545.00000   -0.05103
1545.50000   -0.01724
1546.00000    0.01385
1546.50000    0.04200
1547.00000    0.06701
1547.50000    0.08875
1548.00000    0.10715
1548.50000    0.12222
1549.00000    0.13403
1549.50000    0.14271
1550.00000    0.14846
1550.50000    0.15154
1551.00000    0.15225
1551.50000    0.15095
1552.00000    0.14800
1552.50000    0.14382
1553.00000    0.13880
1553.50000    0.13335
1554.00000    0.12784
1554.50000    0.12261
1555.00000    0.11796
1555.50000    0.11413
1556.00000    0.11128
1556.50000    0.10953
1557.00000    0.10891
1557.50000    0.10940
1558.00000    0.11090
1558.50000    0.11327
1559.00000    0.11631
1559.50000    0.11981
1560.00000    0.12353
1560.50000    0.12726
1561.00000    0.13076
1561.50000    0.13387
1562.00000    0.13647
1562.50000    0.13849
1563.00000    0.13995
1563.50000    0.14096
1564.00000    0.14172
1564.50000    0.14251
1565.00000    0.14371
1565.50000    0.14578
1566.00000    0.14926
1566.50000    0.15474
1567.00000    0.16286
1567.50000    0.17426
1568.00000    0.18961
1568.50000    0.20953
1569.00000    0.23463
1569.50000    0.26543
1570.00000    0.30239
1570.50000    0.34587
1571.00000    0.39614
1571.50000    0.45333
1572.00000    0.51747
1572.50000    0.58845
1573.00000    0.66608
1573.50000    0.75001
1574.00000    0.83982
1574.50000    0.93499
1575.00000    1.03493
1575.50000    1.13897
1576.00000    1.24643
1576.50000    1.35656
1577.00000    1.46864
1577.50000    1.58191
1578.00000    1.69568
1578.50000    1.80923
1579.00000    1.92193
1579.50000    2.03314
1580.00000    2.14232
1580.50000    2.24892
1581.00000    2.35247
1581.50000    2.45254
1582.00000    2.54872
1582.50000    2.64063
1583.00000    2.72793
1583.50000    2.81029
1584.00000    2.88738
1584.50000    2.95889
1585.00000    3.02450
1585.50000    3.08389
1586.00000    3.13674
1586.50000    3.18272
1587.00000    3.22149
1587.50000    3.25274
1588.00000    3.27613
1588.50000    3.29136
1589.00000    3.29815
1589.50000    3.29624
1590.00000    3.28545
1590.50000    3.26560
1591.00000    3.23664
1591.50000    3.19854
1592.00000    3.15139
1592.50000    3.09536
1593.00000    3.03072
1593.50000    2.95786
1594.00000    2.87724
1594.50000    2.78947
1595.00000    2.69522
1595.50000    2.59527
1596.00000    2.49048
1596.50000    2.38178
1597.00000    2.27015
1597.50000    2.15661
1598.00000    2.04219
1598.50000    1.92791
1599.00000    1.81477
1599.50000    1.70372
1600.00000    1.59563
1600.50000    1.49129
1601.00000    1.39139
1601.50000    1.29650
1602.00000    1.20705
1602.50000    1.12335
1603.00000    1.04558
1603.50000    0.97380
1604.00000    0.90794
1604.50000    0.84780
1605.00000    0.79313
1605.50000    0.74356
1606.00000    0.69866
1606.50000    0.65798
1607.00000    0.62101
1607.50000    0.58727
1608.00000    0.55625
1608.50000    0.52749
1609.00000    0.50058
1609.50000    0.47512
1610.00000    0.45080
1610.50000    0.42736
1611.00000    0.40459
1611.50000    0.38235
1612.00000    0.36057
1612.50000    0.33919
1613.00000    0.31821
1613.50000    0.29768
1614.00000    0.27763
1614.50000    0.25815
1615.00000    0.23929
1615.50000    0.22114
1616.00000    0.20374
1616.50000    0.18715
1617.00000    0.17140
1617.50000    0.15648
1618.00000    0.14239
1618.50000    0.12909
1619.00000    0.11652
1619.50000    0.10460
1620.00000    0.09324
1620.50000    0.08234
1621.00000    0.07177
1621.50000    0.06144
1622.00000    0.05123
1622.50000    0.04103
1623.00000    0.03077
1623.50000    0.02037
1624.00000    0.00980
1624.50000   -0.00096
1625.00000   -0.01187
1625.50000   -0.02287
1626.00000   -0.03386
1626.50000   -0.04470
1627.00000   -0.05523
1627.50000   -0.06523
1628.00000   -0.07447
1628.50000   -0.08271
1629.00000   -0.08970
1629.50000   -0.09518
1630.00000   -0.09893
1630.50000   -0.10073
1631.00000   -0.10043
1631.50000   -0.09792
1632.00000   -0.09315
1632.50000   -0.08615
1633.00000   -0.07704
1633.50000   -0.06599
1634.00000   -0.05329
1634.50000   -0.03927
1635.00000   -0.02435
1635.50000   -0.00901
1636.00000    0.00624
1636.50000    0.02088
1637.00000    0.03436
1637.50000    0.04616
1638.00000    0.05580
1638.50000    0.06284
1639.00000    0.06692
1639.50000    0.06776
1640.00000    0.06515
1640.50000    0.05902
1641.00000    0.04936
1641.50000    0.03629
1642.00000    0.01999
1642.50000    0.00076
1643.00000   -0.02105
1643.50000   -0.04503
1644.00000   -0.07069
1644.50000   -0.09754
1645.00000   -0.12506
1645.50000   -0.15271
1646.00000   -0.17999
1646.50000   -0.20638
1647.00000   -0.23142
1647.50000   -0.25466
1648.00000   -0.27569
1648.50000   -0.29416
1649.00000   -0.30974
1649.50000   -0.32218
1650.00000   -0.33123
1650.50000   -0.33673
1651.00000   -0.33856
1651.50000   -0.33664
1652.00000   -0.33097
1652.50000   -0.32158
1653.00000   -0.30858
1653.50000   -0.29213
1654.00000   -0.27247
1654.50000   -0.24989
1655.00000   -0.22474
1655.50000   -0.19743
1656.00000   -0.16843
1656.50000   -0.13824
1657.00000   -0.10742
1657.50000   -0.07653
1658.00000   -0.04615
1658.50000   -0.01684
1659.00000    0.01086
1659.50000    0.03642
1660.00000    0.05941
1660.50000    0.07944
1661.00000    0.09619
1661.50000    0.10945
1662.00000    0.11907
1662.50000    0.12501
1663.00000    0.12732
1663.50000    0.12612
1664.00000    0.12161
1664.50000    0.11406
1665.00000    0.10378
1665.50000    0.09115
1666.00000    0.07656
1666.50000    0.06041
1667.00000    0.04313
1667.50000    0.02513
1668.00000    0.00680
1668.50000   -0.01146
1669.00000   -0.02930
1669.50000   -0.04638
1670.00000   -0.06241
1670.50000   -0.07710
1671.00000   -0.09022
1671.50000   -0.10155
1672.00000   -0.11091
1672.50000   -0.11814
1673.00000   -0.12311
1673.50000   -0.12574
1674.00000   -0.12596
1674.50000   -0.12374
1675.00000   -0.11911
1675.50000   -0.11210
1676.00000   -0.10280
1676.50000   -0.09136
1677.00000   -0.07794
1677.50000   -0.06276
1678.00000   -0.04605
1678.50000   -0.02811
1679.00000   -0.00924
1679.50000    0.01024
1680.00000    0.03000
1680.50000    0.04970
1681.00000    0.06901
1681.50000    0.08763
1682.00000    0.10526
1682.50000    0.12166
1683.00000    0.13661
1683.50000    0.14993
1684.00000    0.16148
1684.50000    0.17117
1685.00000    0.17896
1685.50000    0.18482
1686.00000    0.18877
1686.50000    0.19085
1687.00000    0.19112
1687.50000    0.18967
1688.00000    0.18657
1688.50000    0.18193
1689.00000    0.17585
1689.50000    0.16842
1690.00000    0.15975
1690.50000    0.14994
1691.00000    0.13909
1691.50000    0.12732
1692.00000    0.11473
1692.50000    0.10144
1693.00000    0.08759
1693.50000    0.07330
1694.00000    0.05870
1694.50000    0.04395
1695.00000    0.02918
1695.50000    0.01455
1696.00000    0.00017
1696.50000   -0.01381
1697.00000   -0.02730
1697.50000   -0.04021
1698.00000   -0.05246
1698.50000   -0.06401
1699.00000   -0.07486
1699.50000   -0.08500
1700.00000   -0.09447
1700.50000   -0.10330
1701.00000   -0.11156
1701.50000   -0.11929
1702.00000   -0.12654
1702.50000   -0.13336
1703.00000   -0.13976
1703.50000   -0.14573
1704.00000   -0.15123
1704.50000   -0.15617
1705.00000   -0.16046
1705.50000   -0.16394
1706.00000   -0.16645
1706.50000   -0.16779
1707.00000   -0.16774
1707.50000   -0.16610
1708.00000   -0.16265
1708.50000   -0.15721
1709.00000   -0.14963
1709.50000   -0.13979
1710.00000   -0.12763
1710.50000   -0.11315
1711.00000   -0.09641
1711.50000   -0.07752
1712.00000   -0.05668
1712.50000   -0.03412
1713.00000   -0.01014
1713.50000    0.01494
1714.00000    0.04076
1714.50000    0.06696
1715.00000    0.09318
1715.50000    0.11907
1716.00000    0.14429
1716.50000    0.16855
1717.00000    0.19162
1717.50000    0.21330
1718.00000    0.23343
1718.50000    0.25192
1719.00000    0.26872
1719.50000    0.28384
1720.00000    0.29730
1720.50000    0.30916
1721.00000    0.31947
1721.50000    0.32832
1722.00000    0.33577
1722.50000    0.34186
1723.00000    0.34662
1723.50000    0.35003
1724.00000    0.35204
1724.50000    0.35257
1725.00000    0.35151
1725.50000    0.34870
1726.00000    0.34398
1726.50000    0.33716
1727.00000    0.32805
1727.50000    0.31646
1728.00000    0.30223
1728.50000    0.28522
1729.00000    0.26533
1729.50000    0.24249
1730.00000    0.21671
1730.50000    0.18804
1731.00000    0.15659
1731.50000    0.12253
1732.00000    0.08610
1732.50000    0.04759
1733.00000    0.00734
1733.50000   -0.03427
1734.00000   -0.07681
1734.50000   -0.11983
1735.00000   -0.16284
1735.50000   -0.20537
1736.00000   -0.24692
1736.50000   -0.28701
1737.00000   -0.32518
1737.50000   -0.36099
1738.00000   -0.39401
1738.50000   -0.42388
1739.00000   -0.45026
1739.50000   -0.47287
1740.00000   -0.49147
1740.50000   -0.50587
1741.00000   -0.51595
1741.50000   -0.52165
1742.00000   -0.52294
1742.50000   -0.51987
1743.00000   -0.51255
1743.50000   -0.50112
1744.00000   -0.48579
1744.50000   -0.46680
1745.00000   -0.44446
1745.50000   -0.41907
1746.00000   -0.39101
1746.50000   -0.36064
1747.00000   -0.32838
1747.50000   -0.29463
1748.00000   -0.25980
1748.50000   -0.22430
1749.00000   -0.18853
1749.50000   -0.15288
1750.00000   -0.11771
1750.50000   -0.08337
1751.00000   -0.05016
1751.50000   -0.01839
1752.00000    0.01171
1752.50000    0.03989
1753.00000    0.06596
1753.50000    0.08976
1754.00000    0.11114
1754.50000    0.13000
1755.00000    0.14626
1755.50000    0.15985
1756.00000    0.17074
1756.50000    0.17892
1757.00000    0.18440
1757.50000    0.18723
1758.00000    0.18746
1758.50000    0.18516
1759.00000    0.18046
1759.50000    0.17347
1760.00000    0.16436
1760.50000    0.15328
1761.00000    0.14044
1761.50000    0.12605
1762.00000    0.11034
1762.50000    0.09357
1763.00000    0.07600
1763.50000    0.05792
1764.00000    0.03960
1764.50000    0.02135
1765.00000    0.00345
1765.50000   -0.01378
1766.00000   -0.03007
1766.50000   -0.04513
1767.00000   -0.05869
1767.50000   -0.07049
1768.00000   -0.08032
1768.50000   -0.08795
1769.00000   -0.09322
1769.50000   -0.09598
1770.00000   -0.09615
1770.50000   -0.09365
1771.00000   -0.08848
1771.50000   -0.08068
1772.00000   -0.07033
1772.50000   -0.05759
1773.00000   -0.04264
1773.50000   -0.02574
1774.00000   -0.00718
1774.50000    0.01270
1775.00000    0.03352
1775.50000    0.05487
1776.00000    0.07633
1776.50000    0.09745
1777.00000    0.11779
1777.50000    0.13693
1778.00000    0.15447
1778.50000    0.17005
1779.00000    0.18334
1779.50000    0.19411
1780.00000    0.20216
1780.50000    0.20738
1781.00000    0.20975
1781.50000    0.20931
1782.00000    0.20620
1782.50000    0.20062
1783.00000    0.19284
1783.50000    0.18319
1784.00000    0.17205
1784.50000    0.15983
1785.00000    0.14697
1785.50000    0.13391
1786.00000    0.12108
1786.50000    0.10891
1787.00000    0.09777
1787.50000    0.08800
1788.00000    0.07989
1788.50000    0.07366
1789.00000    0.06947
1789.50000    0.06741
1790.00000    0.06751
1790.50000    0.06974
1791.00000    0.07400
1791.50000    0.08015
1792.00000    0.08800
1792.50000    0.09733
1793.00000    0.10791
1793.50000    0.11948
1794.00000    0.13179
1794.50000    0.14459
1795.00000    0.15765
1795.50000    0.17075
1796.00000    0.18370
1796.50000    0.19632
1797.00000    0.20845
1797.50000    0.21998
1798.00000    0.23076
1798.50000    0.24068
1799.00000    0.24962
1799.50000    0.25746
1800.00000    0.26407
1800.50000    0.26928
1801.00000    0.27295
1801.50000    0.27487
1802.00000    0.27485
1802.50000    0.27267
1803.00000    0.26811
1803.50000    0.26096
1804.00000    0.25100
1804.50000    0.23808
1805.00000    0.22205
1805.50000    0.20283
1806.00000    0.18042
1806.50000    0.15487
1807.00000    0.12632
1807.50000    0.09502
1808.00000    0.06129
1808.50000    0.02553
1809.00000   -0.01176
1809.50000   -0.05004
1810.00000   -0.08870
1810.50000   -0.12711
1811.00000   -0.16464
1811.50000   -0.20065
1812.00000   -0.23457
1812.50000   -0.26588
1813.00000   -0.29412
1813.50000   -0.31894
1814.00000   -0.34010
1814.50000   -0.35745
1815.00000   -0.37096
1815.50000   -0.38072
1816.00000   -0.38690
1816.50000   -0.38974
1817.00000   -0.38956
1817.50000   -0.38671
1818.00000   -0.38159
1818.50000   -0.37455
1819.00000   -0.36594
1819.50000   -0.35608
1820.00000   -0.34520
1820.50000   -0.33347
1821.00000   -0.32097
1821.50000   -0.30771
1822.00000   -0.29359
1822.50000   -0.27845
1823.00000   -0.26208
1823.50000   -0.24418
1824.00000   -0.22446
1824.50000   -0.20257
1825.00000   -0.17821
1825.50000   -0.15108
1826.00000   -0.12094
1826.50000   -0.08759
1827.00000   -0.05094
1827.50000   -0.01093
1828.00000    0.03237
1828.50000    0.07881
1829.00000    0.12817
1829.50000    0.18013
1830.00000    0.23430
1830.50000    0.29023
1831.00000    0.34741
1831.50000    0.40529
1832.00000    0.46329
1832.50000    0.52083
1833.00000    0.57730
1833.50000    0.63214
1834.00000    0.68479
1834.50000    0.73473
1835.00000    0.78148
1835.50000    0.82462
1836.00000    0.86380
1836.50000    0.89872
1837.00000    0.92916
1837.50000    0.95496
1838.00000    0.97605
1838.50000    0.99243
1839.00000    1.00416
1839.50000    1.01136
1840.00000    1.01422
1840.50000    1.01298
1841.00000    1.00791
1841.50000    0.99931
1842.00000    0.98750
1842.50000    0.97280
1843.00000    0.95553
1843.50000    0.93598
1844.00000    0.91442
1844.50000    0.89109
1845.00000    0.86619
1845.50000    0.83988
1846.00000    0.81228
1846.50000    0.78350
1847.00000    0.75359
1847.50000    0.72262
1848.00000    0.69064
1848.50000    0.65769
1849.00000    0.62384
1849.50000    0.58919
1850.00000    0.55386
1850.50000    0.51803
1851.00000    0.48189
1851.50000    0.44570
1852.00000    0.40974
1852.50000    0.37431
1853.00000    0.33976
1853.50000    0.30641
1854.00000    0.27459
1854.50000    0.24458
1855.00000    0.21665
1855.50000    0.19099
1856.00000    0.16772
1856.50000    0.14689
1857.00000    0.12847
1857.50000    0.11232
1858.00000    0.09825
1858.50000    0.08596
1859.00000    0.07511
1859.50000    0.06529
1860.00000    0.05606
1860.50000    0.04696
1861.00000    0.03755
1861.50000    0.02740
1862.00000    0.01609
1862.50000    0.00330
1863.00000   -0.01126
1863.50000   -0.02780
1864.00000   -0.04644
1864.50000   -0.06721
1865.00000   -0.09009
1865.50000   -0.11493
1866.00000   -0.14153
1866.50000   -0.16963
1867.00000   -0.19888
1867.50000   -0.22889
1868.00000   -0.25924
1868.50000   -0.28946
1869.00000   -0.31906
1869.50000   -0.34754
1870.00000   -0.37441
1870.50000   -0.39916
1871.00000   -0.42133
1871.50000   -0.44045
1872.00000   -0.45609
1872.50000   -0.46787
1873.00000   -0.47543
1873.50000   -0.47849
1874.00000   -0.47681
1874.50000   -0.47020
1875.00000   -0.45856
1875.50000   -0.44184
1876.00000   -0.42008
1876.50000   -0.39337
1877.00000   -0.36189
1877.50000   -0.32588
1878.00000   -0.28565
1878.50000   -0.24157
1879.00000   -0.19408
1879.50000   -0.14366
1880.00000   -0.09083
1880.50000   -0.03615
1881.00000    0.01979
1881.50000    0.07637
1882.00000    0.13299
1882.50000    0.18900
1883.00000    0.24381
1883.50000    0.29679
1884.00000    0.34736
1884.50000    0.39496
1885.00000    0.43906
1885.50000    0.47919
1886.00000    0.51492
1886.50000    0.54588
1887.00000    0.57177
1887.50000    0.59236
1888.00000    0.60750
1888.50000    0.61715
1889.00000    0.62134
1889.50000    0.62020
1890.00000    0.61394
1890.50000    0.60290
1891.00000    0.58747
1891.50000    0.56813
1892.00000    0.54541
1892.50000    0.51991
1893.00000    0.49224
1893.50000    0.46301
1894.00000    0.43284
1894.50000    0.40230
1895.00000    0.37191
1895.50000    0.34211
1896.00000    0.31327
1896.50000    0.28566
1897.00000    0.25946
1897.50000    0.23474
1898.00000    0.21149
1898.50000    0.18962
1899.00000    0.16898
1899.50000    0.14939
1900.00000    0.13062
1900.50000    0.11247
1901.00000    0.09475
1901.50000    0.07733
1902.00000    0.06012
1902.50000    0.04312
1903.00000    0.02643
1903.50000    0.01021
1904.00000   -0.00527
1904.50000   -0.01968
1905.00000   -0.03264
1905.50000   -0.04371
1906.00000   -0.05244
1906.50000   -0.05841
1907.00000   -0.06120
1907.50000   -0.06050
1908.00000   -0.05603
1908.50000   -0.04768
1909.00000   -0.03541
1909.50000   -0.01932
1910.00000    0.00033
1910.50000    0.02318
1911.00000    0.04877
1911.50000    0.07650
1912.00000    0.10575
1912.50000    0.13580
1913.00000    0.16592
1913.50000    0.19541
1914.00000    0.22357
1914.50000    0.24976
1915.00000    0.27343
1915.50000    0.29410
1916.00000    0.31144
1916.50000    0.32519
1917.00000    0.33522
1917.50000    0.34155
1918.00000    0.34427
1918.50000    0.34359
1919.00000    0.33981
1919.50000    0.33329
1920.00000    0.32446
1920.50000    0.31376
1921.00000    0.30166
1921.50000    0.28864
1922.00000    0.27512
1922.50000    0.26152
1923.00000    0.24818
1923.50000    0.23539
1924.00000    0.22338
1924.50000    0.21228
1925.00000    0.20215
1925.50000    0.19298
1926.00000    0.18466
1926.50000    0.17703
1927.00000    0.16988
1927.50000    0.16293
1928.00000    0.15588
1928.50000    0.14840
1929.00000    0.14016
1929.50000    0.13085
1930.00000    0.12017
1930.50000    0.10788
1931.00000    0.09379
1931.50000    0.07779
1932.00000    0.05981
1932.50000    0.03989
1933.00000    0.01815
1933.50000   -0.00522
1934.00000   -0.02997
1934.50000   -0.05574
1935.00000   -0.08216
1935.50000   -0.10879
1936.00000   -0.13518
1936.50000   -0.16086
1937.00000   -0.18535
1937.50000   -0.20822
1938.00000   -0.22904
1938.50000   -0.24745
1939.00000   -0.26313
1939.50000   -0.27582
1940.00000   -0.28534
1940.50000   -0.29155
1941.00000   -0.29440
1941.50000   -0.29391
1942.00000   -0.29014
1942.50000   -0.28320
1943.00000   -0.27329
1943.50000   -0.26060
1944.00000   -0.24540
1944.50000   -0.22796
1945.00000   -0.20862
1945.50000   -0.18770
1946.00000   -0.16556
1946.50000   -0.14259
1947.00000   -0.11918
1947.50000   -0.09574
1948.00000   -0.07267
1948.50000   -0.05040
1949.00000   -0.02932
1949.50000   -0.00984
1950.00000    0.00769
1950.50000    0.02291
1951.00000    0.03556
1951.50000    0.04538
1952.00000    0.05220
1952.50000    0.05593
1953.00000    0.05653
1953.50000    0.05405
1954.00000    0.04862
1954.50000    0.04041
1955.00000    0.02969
1955.50000    0.01676
1956.00000    0.00196
1956.50000   -0.01434
1957.00000   -0.03178
1957.50000   -0.04999
1958.00000   -0.06861
1958.50000   -0.08733
1959.00000   -0.10588
1959.50000   -0.12402
1960.00000   -0.14157
1960.50000   -0.15837
1961.00000   -0.17433
1961.50000   -0.18936
1962.00000   -0.20340
1962.50000   -0.21639
1963.00000   -0.22827
1963.50000   -0.23896
1964.00000   -0.24836
1964.50000   -0.25632
1965.00000   -0.26269
1965.50000   -0.26725
1966.00000   -0.26980
1966.50000   -0.27010
1967.00000   -0.26792
1967.50000   -0.26305
1968.00000   -0.25531
1968.50000   -0.24457
1969.00000   -0.23078
1969.50000   -0.21395
1970.00000   -0.19419
1970.50000   -0.17171
1971.00000   -0.14678
1971.50000   -0.11979
1972.00000   -0.09118
1972.50000   -0.06146
1973.00000   -0.03120
1973.50000   -0.00097
1974.00000    0.02864
1974.50000    0.05707
1975.00000    0.08376
1975.50000    0.10825
1976.00000    0.13011
1976.50000    0.14899
1977.00000    0.16463
1977.50000    0.17685
1978.00000    0.18555
1978.50000    0.19073
1979.00000    0.19246
1979.50000    0.19086
1980.00000    0.18614
1980.50000    0.17855
1981.00000    0.16838
1981.50000    0.15597
1982.00000    0.14169
1982.50000    0.12592
1983.00000    0.10908
1983.50000    0.09160
1984.00000    0.07391
1984.50000    0.05647
1985.00000    0.03971
1985.50000    0.02410
1986.00000    0.01006
1986.50000   -0.00201
1987.00000   -0.01171
1987.50000   -0.01872
1988.00000   -0.02276
1988.50000   -0.02363
1989.00000   -0.02118
1989.50000   -0.01540
1990.00000   -0.00633
1990.50000    0.00585
1991.00000    0.02087
1991.50000    0.03837
1992.00000    0.05788
1992.50000    0.07885
1993.00000    0.10068
1993.50000    0.12271
1994.00000    0.14423
1994.50000    0.16455
1995.00000    0.18299
1995.50000    0.19891
1996.00000    0.21170
1996.50000    0.22085
1997.00000    0.22593
1997.50000    0.22661
1998.00000    0.22268
1998.50000    0.21402
1999.00000    0.20065
1999.50000    0.18267
2000.00000    0.16032
2000.50000    0.13392
2001.00000    0.10386
2001.50000    0.07063
2002.00000    0.03477
2002.50000   -0.00311
2003.00000   -0.04238
2003.50000   -0.08237
2004.00000   -0.12242
2004.50000   -0.16182
2005.00000   -0.19990
2005.50000   -0.23598
2006.00000   -0.26943
2006.50000   -0.29962
2007.00000   -0.32600
2007.50000   -0.34804
2008.00000   -0.36528
2008.50000   -0.37734
2009.00000   -0.38390
2009.50000   -0.38477
2010.00000   -0.37980
2010.50000   -0.36899
2011.00000   -0.35243
2011.50000   -0.33032
2012.00000   -0.30298
2012.50000   -0.27082
2013.00000   -0.23436
2013.50000   -0.19421
2014.00000   -0.15105
2014.50000   -0.10563
2015.00000   -0.05875
2015.50000   -0.01122
2016.00000    0.03615
2016.50000    0.08256
2017.00000    0.12726
2017.50000    0.16954
2018.00000    0.20880
2018.50000    0.24450
2019.00000    0.27624
2019.50000    0.30370
2020.00000    0.32670
2020.50000    0.34517
2021.00000    0.35915
2021.50000    0.36878
2022.00000    0.37431
2022.50000    0.37603
2023.00000    0.37433
2023.50000    0.36963
2024.00000    0.36234
2024.50000    0.35293
2025.00000    0.34183
2025.50000    0.32945
2026.00000    0.31616
2026.50000    0.30228
2027.00000    0.28811
2027.50000    0.27385
2028.00000    0.25968
2028.50000    0.24571
2029.00000    0.23202
2029.50000    0.21863
2030.00000    0.20556
2030.50000    0.19278
2031.00000    0.18024
2031.50000    0.16791
2032.00000    0.15574
2032.50000    0.14369
2033.00000    0.13170
2033.50000    0.11976
2034.00000    0.10781
2034.50000    0.09585
2035.00000    0.08384
2035.50000    0.07174
2036.00000    0.05954
2036.50000    0.04718
2037.00000    0.03463
2037.50000    0.02183
2038.00000    0.00872
2038.50000   -0.00474
2039.00000   -0.01862
2039.50000   -0.03295
2040.00000   -0.04776
2040.50000   -0.06306
2041.00000   -0.07882
2041.50000   -0.09500
2042.00000   -0.11151
2042.50000   -0.12822
2043.00000   -0.14499
2043.50000   -0.16162
2044.00000   -0.17791
2044.50000   -0.19362
2045.00000   -0.20851
2045.50000   -0.22233
2046.00000   -0.23485
2046.50000   -0.24584
2047.00000   -0.25513
2047.50000   -0.26254
2048.00000   -0.26797
2048.50000   -0.27135
2049.00000   -0.27266
2049.50000   -0.27193
2050.00000   -0.26924
2050.50000   -0.26472
2051.00000   -0.25852
2051.50000   -0.25083
2052.00000   -0.24186
2052.50000   -0.23182
2053.00000   -0.22096
2053.50000   -0.20947
2054.00000   -0.19758
2054.50000   -0.18548
2055.00000   -0.17332
2055.50000   -0.16125
2056.00000   -0.14939
2056.50000   -0.13781
2057.00000   -0.12656
2057.50000   -0.11569
2058.00000   -0.10518
2058.50000   -0.09502
2059.00000   -0.08516
2059.50000   -0.07555
2060.00000   -0.06611
2060.50000   -0.05675
2061.00000   -0.04738
2061.50000   -0.03788
2062.00000   -0.02812
2062.50000   -0.01798
2063.00000   -0.00731
2063.50000    0.00404
2064.00000    0.01623
2064.50000    0.02943
2065.00000    0.04378
2065.50000    0.05947
2066.00000    0.07664
2066.50000    0.09544
2067.00000    0.11602
2067.50000    0.13849
2068.00000    0.16294
2068.50000    0.18944
2069.00000    0.21801
2069.50000    0.24864
2070.00000    0.28129
2070.50000    0.31586
2071.00000    0.35220
2071.50000    0.39013
2072.00000    0.42942
2072.50000    0.46977
2073.00000    0.51088
2073.50000    0.55240
2074.00000    0.59393
2074.50000    0.63509
2075.00000    0.67544
2075.50000    0.71457
2076.00000    0.75204
2076.50000    0.78745
2077.00000    0.82038
2077.50000    0.85048
2078.00000    0.87738
2078.50000    0.90078
2079.00000    0.92041
2079.50000    0.93605
2080.00000    0.94751
2080.50000    0.95465
2081.00000    0.95739
2081.50000    0.95567
2082.00000    0.94949
2082.50000    0.93888
2083.00000    0.92390
2083.50000    0.90463
2084.00000    0.88119
2084.50000    0.85371
2085.00000    0.82234
2085.50000    0.78724
2086.00000    0.74858
2086.50000    0.70654
2087.00000    0.66133
2087.50000    0.61317
2088.00000    0.56227
2088.50000    0.50890
2089.00000    0.45333
2089.50000    0.39588
2090.00000    0.33689
2090.50000    0.27673
2091.00000    0.21583
2091.50000    0.15465
2092.00000    0.09368
2092.50000    0.03346
2093.00000   -0.02545
2093.50000   -0.08244
2094.00000   -0.13690
2094.50000   -0.18823
2095.00000   -0.23579
2095.50000   -0.27901
2096.00000   -0.31732
2096.50000   -0.35022
2097.00000   -0.37726
2097.50000   -0.39807
2098.00000   -0.41239
2098.50000   -0.42003
2099.00000   -0.42093
2099.50000   -0.41515
2100.00000   -0.40286
2100.50000   -0.38435
2101.00000   -0.36000
2101.50000   -0.33032
2102.00000   -0.29590
2102.50000   -0.25741
2103.00000   -0.21558
2103.50000   -0.17117
2104.00000   -0.12500
2104.50000   -0.07786
2105.00000   -0.03055
2105.50000    0.01617
2106.00000    0.06158
2106.50000    0.10501
2107.00000    0.14587
2107.50000    0.18364
2108.00000    0.21789
2108.50000    0.24825
2109.00000    0.27446
2109.50000    0.29632
2110.00000    0.31373
2110.50000    0.32663
2111.00000    0.33506
2111.50000    0.33908
2112.00000    0.33883
2112.50000    0.33449
2113.00000    0.32627
2113.50000    0.31442
2114.00000    0.29923
2114.50000    0.28098
2115.00000    0.26002
2115.50000    0.23669
2116.00000    0.21134
2116.50000    0.18434
2117.00000    0.15606
2117.50000    0.12688
2118.00000    0.09717
2118.50000    0.06729
2119.00000    0.03757
2119.50000    0.00832
2120.00000   -0.02015
2120.50000   -0.04761
2121.00000   -0.07384
2121.50000   -0.09865
2122.00000   -0.12192
2122.50000   -0.14354
2123.00000   -0.16345
2123.50000   -0.18163
2124.00000   -0.19806
2124.50000   -0.21275
2125.00000   -0.22572
2125.50000   -0.23697
2126.00000   -0.24652
2126.50000   -0.25436
2127.00000   -0.26046
2127.50000   -0.26476
2128.00000   -0.26721
2128.50000   -0.26769
2129.00000   -0.26609
2129.50000   -0.26229
2130.00000   -0.25616
2130.50000   -0.24757
2131.00000   -0.23643
2131.50000   -0.22265
2132.00000   -0.20619
2132.50000   -0.18707
2133.00000   -0.16534
2133.50000   -0.14112
2134.00000   -0.11461
2134.50000   -0.08603
2135.00000   -0.05569
2135.50000   -0.02394
2136.00000    0.00883
2136.50000    0.04220
2137.00000    0.07572
2137.50000    0.10894
2138.00000    0.14143
2138.50000    0.17275
2139.00000    0.20252
2139.50000    0.23039
2140.00000    0.25605
2140.50000    0.27925
2141.00000    0.29982
2141.50000    0.31762
2142.00000    0.33258
2142.50000    0.34469
2143.00000    0.35400
2143.50000    0.36058
2144.00000    0.36456
2144.50000    0.36609
2145.00000    0.36535
2145.50000    0.36251
2146.00000    0.35778
2146.50000    0.35133
2147.00000    0.34336
2147.50000    0.33403
2148.00000    0.32349
2148.50000    0.31189
2149.00000    0.29932
2149.50000    0.28588
2150.00000    0.27164
2150.50000    0.25665
2151.00000    0.24095
2151.50000    0.22456
2152.00000    0.20750
2152.50000    0.18977
2153.00000    0.17141
2153.50000    0.15242
2154.00000    0.13283
2154.50000    0.11271
2155.00000    0.09211
2155.50000    0.07113
2156.00000    0.04987
2156.50000    0.02847
2157.00000    0.00709
2157.50000   -0.01412
2158.00000   -0.03496
2158.50000   -0.05524
2159.00000   -0.07478
2159.50000   -0.09338
2160.00000   -0.11088
2160.50000   -0.12713
2161.00000   -0.14201
2161.50000   -0.15545
2162.00000   -0.16740
2162.50000   -0.17787
2163.00000   -0.18689
2163.50000   -0.19458
2164.00000   -0.20104
2164.50000   -0.20645
2165.00000   -0.21098
2165.50000   -0.21486
2166.00000   -0.21826
2166.50000   -0.22140
2167.00000   -0.22445
2167.50000   -0.22753
2168.00000   -0.23075
2168.50000   -0.23415
2169.00000   -0.23769
2169.50000   -0.24129
2170.00000   -0.24479
2170.50000   -0.24798
2171.00000   -0.25059
2171.50000   -0.25227
2172.00000   -0.25269
2172.50000   -0.25147
2173.00000   -0.24823
2173.50000   -0.24261
2174.00000   -0.23429
2174.50000   -0.22300
2175.00000   -0.20854
2175.50000   -0.19080
2176.00000   -0.16976
2176.50000   -0.14552
2177.00000   -0.11825
2177.50000   -0.08825
2178.00000   -0.05593
2178.50000   -0.02176
2179.00000    0.01370
2179.50000    0.04983
2180.00000    0.08598
2180.50000    0.12148
2181.00000    0.15566
2181.50000    0.18788
2182.00000    0.21755
2182.50000    0.24412
2183.00000    0.26714
2183.50000    0.28623
2184.00000    0.30113
2184.50000    0.31165
2185.00000    0.31773
2185.50000    0.31937
2186.00000    0.31670
2186.50000    0.30992
2187.00000    0.29930
2187.50000    0.28516
2188.00000    0.26790
2188.50000    0.24793
2189.00000    0.22569
2189.50000    0.20164
2190.00000    0.17622
2190.50000    0.14987
2191.00000    0.12303
2191.50000    0.09607
2192.00000    0.06936
2192.50000    0.04323
2193.00000    0.01796
2193.50000   -0.00622
2194.00000   -0.02909
2194.50000   -0.05051
2195.00000   -0.07036
2195.50000   -0.08856
2196.00000   -0.10508
2196.50000   -0.11989
2197.00000   -0.13302
2197.50000   -0.14451
2198.00000   -0.15441
2198.50000   -0.16278
2199.00000   -0.16970
2199.50000   -0.17524
2200.00000   -0.17946
2200.50000   -0.18244
2201.00000   -0.18421
2201.50000   -0.18482
2202.00000   -0.18430
2202.50000   -0.18267
2203.00000   -0.17993
2203.50000   -0.17609
2204.00000   -0.17116
2204.50000   -0.16515
2205.00000   -0.15809
2205.50000   -0.15002
2206.00000   -0.14099
2206.50000   -0.13110
2207.00000   -0.12045
2207.50000   -0.10918
2208.00000   -0.09745
2208.50000   -0.08544
2209.00000   -0.07336
2209.50000   -0.06142
2210.00000   -0.04983
2210.50000   -0.03881
2211.00000   -0.02857
2211.50000   -0.01928
2212.00000   -0.01111
2212.50000   -0.00418
2213.00000    0.00140
2213.50000    0.00558
2214.00000    0.00832
2214.50000    0.00965
2215.00000    0.00961
2215.50000    0.00827
2216.00000    0.00574
2216.50000    0.00213
2217.00000   -0.00242
2217.50000   -0.00776
2218.00000   -0.01372
2218.50000   -0.02014
2219.00000   -0.02686
2219.50000   -0.03371
2220.00000   -0.04051
2220.50000   -0.04711
2221.00000   -0.05333
2221.50000   -0.05901
2222.00000   -0.06402
2222.50000   -0.06819
2223.00000   -0.07142
2223.50000   -0.07359
2224.00000   -0.07462
2224.50000   -0.07447
2225.00000   -0.07310
2225.50000   -0.07055
2226.00000   -0.06688
2226.50000   -0.06220
2227.00000   -0.05664
2227.50000   -0.05040
2228.00000   -0.04368
2228.50000   -0.03672
2229.00000   -0.02976
2229.50000   -0.02305
2230.00000   -0.01680
2230.50000   -0.01123
2231.00000   -0.00648
2231.50000   -0.00268
2232.00000    0.00014
2232.50000    0.00197
2233.00000    0.00289
2233.50000    0.00304
2234.00000    0.00262
2234.50000    0.00184
2235.00000    0.00100
2235.50000    0.00037
2236.00000    0.00025
2236.50000    0.00091
2237.00000    0.00260
2237.50000    0.00553
2238.00000    0.00984
2238.50000    0.01562
2239.00000    0.02288
2239.50000    0.03155
2240.00000    0.04150
2240.50000    0.05253
2241.00000    0.06439
2241.50000    0.07677
2242.00000    0.08931
2242.50000    0.10167
2243.00000    0.11347
2243.50000    0.12435
2244.00000    0.13394
2244.50000    0.14196
2245.00000    0.14810
2245.50000    0.15216
2246.00000    0.15396
2246.50000    0.15339
2247.00000    0.15040
2247.50000    0.14500
2248.00000    0.13725
2248.50000    0.12728
2249.00000    0.11528
2249.50000    0.10146
2250.00000    0.08610
2250.50000    0.06947
2251.00000    0.05191
2251.50000    0.03376
2252.00000    0.01534
2252.50000   -0.00300
2253.00000   -0.02093
2253.50000   -0.03815
2254.00000   -0.05439
2254.50000   -0.06940
2255.00000   -0.08299
2255.50000   -0.09500
2256.00000   -0.10534
2256.50000   -0.11394
2257.00000   -0.12079
2257.50000   -0.12592
2258.00000   -0.12938
2258.50000   -0.13128
2259.00000   -0.13169
2259.50000   -0.13075
2260.00000   -0.12854
2260.50000   -0.12516
2261.00000   -0.12068
2261.50000   -0.11514
2262.00000   -0.10856
2262.50000   -0.10093
2263.00000   -0.09219
2263.50000   -0.08228
2264.00000   -0.07112
2264.50000   -0.05863
2265.00000   -0.04471
2265.50000   -0.02931
2266.00000   -0.01239
2266.50000    0.00605
2267.00000    0.02594
2267.50000    0.04719
2268.00000    0.06961
2268.50000    0.09298
2269.00000    0.11702
2269.50000    0.14138
2270.00000    0.16568
2270.50000    0.18953
2271.00000    0.21249
2271.50000    0.23416
2272.00000    0.25412
2272.50000    0.27202
2273.00000    0.28753
2273.50000    0.30039
2274.00000    0.31039
2274.50000    0.31743
2275.00000    0.32145
2275.50000    0.32248
2276.00000    0.32061
2276.50000    0.31600
2277.00000    0.30887
2277.50000    0.29945
2278.00000    0.28802
2278.50000    0.27486
2279.00000    0.26025
2279.50000    0.24446
2280.00000    0.22770
2280.50000    0.21020
2281.00000    0.19209
2281.50000    0.17349
2282.00000    0.15446
2282.50000    0.13502
2283.00000    0.11515
2283.50000    0.09479
2284.00000    0.07389
2284.50000    0.05235
2285.00000    0.03011
2285.50000    0.00711
2286.00000   -0.01668
2286.50000   -0.04125
2287.00000   -0.06655
2287.50000   -0.09246
2288.00000   -0.11882
2288.50000   -0.14541
2289.00000   -0.17196
2289.50000   -0.19815
2290.00000   -0.22364
2290.50000   -0.24805
2291.00000   -0.27100
2291.50000   -0.29211
2292.00000   -0.31102
2292.50000   -0.32741
2293.00000   -0.34100
2293.50000   -0.35158
2294.00000   -0.35899
2294.50000   -0.36316
2295.00000   -0.36408
2295.50000   -0.36183
2296.00000   -0.35654
2296.50000   -0.34841
2297.00000   -0.33771
2297.50000   -0.32472
2298.00000   -0.30978
2298.50000   -0.29322
2299.00000   -0.27539
2299.50000   -0.25661
2300.00000   -0.23722
2300.50000   -0.21750
2301.00000   -0.19770
2301.50000   -0.17805
2302.00000   -0.15872
2302.50000   -0.13986
2303.00000   -0.12159
2303.50000   -0.10397
2304.00000   -0.08706
2304.50000   -0.07090
2305.00000   -0.05550
2305.50000   -0.04087
2306.00000   -0.02703
2306.50000   -0.01397
2307.00000   -0.00171
2307.50000    0.00975
2308.00000    0.02037
2308.50000    0.03015
2309.00000    0.03905
2309.50000    0.04706
2310.00000    0.05415
2310.50000    0.06030
2311.00000    0.06552
2311.50000    0.06980
2312.00000    0.07316
2312.50000    0.07564
2313.00000    0.07729
2313.50000    0.07816
2314.00000    0.07834
2314.50000    0.07794
2315.00000    0.07706
2315.50000    0.07582
2316.00000    0.07437
2316.50000    0.07284
2317.00000    0.07137
2317.50000    0.07012
2318.00000    0.06923
2318.50000    0.06882
2319.00000    0.06904
2319.50000    0.06998
2320.00000    0.07174
2320.50000    0.07438
2321.00000    0.07796
2321.50000    0.08247
2322.00000    0.08792
2322.50000    0.09425
2323.00000    0.10140
2323.50000    0.10927
2324.00000    0.11773
2324.50000    0.12663
2325.00000    0.13583
2325.50000    0.14514
2326.00000    0.15439
2326.50000    0.16341
2327.00000    0.17202
2327.50000    0.18006
2328.00000    0.18738
2328.50000    0.19386
2329.00000    0.19937
2329.50000    0.20383
2330.00000    0.20715
2330.50000    0.20928
2331.00000    0.21015
2331.50000    0.20972
2332.00000    0.20796
2332.50000    0.20484
2333.00000    0.20033
2333.50000    0.19438
2334.00000    0.18699
2334.50000    0.17811
2335.00000    0.16774
2335.50000    0.15586
2336.00000    0.14247
2336.50000    0.12761
2337.00000    0.11131
2337.50000    0.09366
2338.00000    0.07476
2338.50000    0.05474
2339.00000    0.03379
2339.50000    0.01210
2340.00000   -0.01011
2340.50000   -0.03260
2341.00000   -0.05511
2341.50000   -0.07740
2342.00000   -0.09923
2342.50000   -0.12038
2343.00000   -0.14066
2343.50000   -0.15993
2344.00000   -0.17806
2344.50000   -0.19499
2345.00000   -0.21069
2345.50000   -0.22517
2346.00000   -0.23847
2346.50000   -0.25067
2347.00000   -0.26182
2347.50000   -0.27202
2348.00000   -0.28132
2348.50000   -0.28976
2349.00000   -0.29734
2349.50000   -0.30403
2350.00000   -0.30975
2350.50000   -0.31436
2351.00000   -0.31770
2351.50000   -0.31956
2352.00000   -0.31971
2352.50000   -0.31788
2353.00000   -0.31383
2353.50000   -0.30733
2354.00000   -0.29816
2354.50000   -0.28616
2355.00000   -0.27121
2355.50000   -0.25327
2356.00000   -0.23237
2356.50000   -0.20860
2357.00000   -0.18214
2357.50000   -0.15323
2358.00000   -0.12219
2358.50000   -0.08938
2359.00000   -0.05520
2359.50000   -0.02010
2360.00000    0.01546
2360.50000    0.05100
2361.00000    0.08607
2361.50000    0.12021
2362.00000    0.15297
2362.50000    0.18396
2363.00000    0.21281
2363.50000    0.23919
2364.00000    0.26280
2364.50000    0.28341
2365.00000    0.30082
2365.50000    0.31488
2366.00000    0.32551
2366.50000    0.33268
2367.00000    0.33639
2367.50000    0.33674
2368.00000    0.33387
2368.50000    0.32797
2369.00000    0.31929
2369.50000    0.30816
2370.00000    0.29491
2370.50000    0.27993
2371.00000    0.26364
2371.50000    0.24645
2372.00000    0.22880
2372.50000    0.21108
2373.00000    0.19365
2373.50000    0.17685
2374.00000    0.16092
2374.50000    0.14605
2375.00000    0.13234
2375.50000    0.11981
2376.00000    0.10842
2376.50000    0.09802
2377.00000    0.08841
2377.50000    0.07935
2378.00000    0.07054
2378.50000    0.06168
2379.00000    0.05245
2379.50000    0.04257
2380.00000    0.03179
2380.50000    0.01989
2381.00000    0.00674
2381.50000   -0.00774
2382.00000   -0.02355
2382.50000   -0.04062
2383.00000   -0.05880
2383.50000   -0.07788
2384.00000   -0.09760
2384.50000   -0.11767
2385.00000   -0.13775
2385.50000   -0.15749
2386.00000   -0.17654
2386.50000   -0.19457
2387.00000   -0.21123
2387.50000   -0.22623
2388.00000   -0.23930
2388.50000   -0.25020
2389.00000   -0.25872
2389.50000   -0.26471
2390.00000   -0.26802
2390.50000   -0.26858
2391.00000   -0.26631
2391.50000   -0.26120
2392.00000   -0.25325
2392.50000   -0.24250
2393.00000   -0.22902
2393.50000   -0.21290
2394.00000   -0.19429
2394.50000   -0.17335
2395.00000   -0.15026
2395.50000   -0.12526
2396.00000   -0.09858
2396.50000   -0.07051
2397.00000   -0.04133
2397.50000   -0.01135
2398.00000    0.01912
2398.50000    0.04975
2399.00000    0.08021
2399.50000    0.11019
2400.00000    0.13935
2400.50000    0.16740
2401.00000    0.19403
2401.50000    0.21893
2402.00000    0.24183
2402.50000    0.26245
2403.00000    0.28051
2403.50000    0.29575
2404.00000    0.30792
2404.50000    0.31676
2405.00000    0.32207
2405.50000    0.32362
2406.00000    0.32124
2406.50000    0.31479
2407.00000    0.30418
2407.50000    0.28936
2408.00000    0.27037
2408.50000    0.24730
2409.00000    0.22032
2409.50000    0.18970
2410.00000    0.15576
2410.50000    0.11894
2411.00000    0.07971
2411.50000    0.03862
2412.00000   -0.00372
2412.50000   -0.04668
2413.00000   -0.08960
2413.50000   -0.13185
2414.00000   -0.17278
2414.50000   -0.21179
2415.00000   -0.24832
2415.50000   -0.28189
2416.00000   -0.31207
2416.50000   -0.33850
2417.00000   -0.36091
2417.50000   -0.37909
2418.00000   -0.39293
2418.50000   -0.40237
2419.00000   -0.40743
2419.50000   -0.40816
2420.00000   -0.40470
2420.50000   -0.39722
2421.00000   -0.38592
2421.50000   -0.37106
2422.00000   -0.35292
2422.50000   -0.33183
2423.00000   -0.30815
2423.50000   -0.28225
2424.00000   -0.25454
2424.50000   -0.22545
2425.00000   -0.19542
2425.50000   -0.16491
2426.00000   -0.13435
2426.50000   -0.10419
2427.00000   -0.07484
2427.50000   -0.04666
2428.00000   -0.01998
2428.50000    0.00493
2429.00000    0.02789
2429.50000    0.04876
2430.00000    0.06750
2430.50000    0.08414
2431.00000    0.09875
2431.50000    0.11151
2432.00000    0.12260
2432.50000    0.13224
2433.00000    0.14069
2433.50000    0.14819
2434.00000    0.15495
2434.50000    0.16117
2435.00000    0.16701
2435.50000    0.17254
2436.00000    0.17782
2436.50000    0.18282
2437.00000    0.18748
2437.50000    0.19167
2438.00000    0.19524
2438.50000    0.19800
2439.00000    0.19975
2439.50000    0.20029
2440.00000    0.19944
2440.50000    0.19700
2441.00000    0.19284
2441.50000    0.18684
2442.00000    0.17892
2442.50000    0.16903
2443.00000    0.15716
2443.50000    0.14334
2444.00000    0.12762
2444.50000    0.11009
2445.00000    0.09085
2445.50000    0.07005
2446.00000    0.04786
2446.50000    0.02449
2447.00000    0.00018
2447.50000   -0.02480
2448.00000   -0.05012
2448.50000   -0.07540
2449.00000   -0.10024
2449.50000   -0.12415
2450.00000   -0.14665
2450.50000   -0.16718
2451.00000   -0.18520
2451.50000   -0.20013
2452.00000   -0.21142
2452.50000   -0.21855
2453.00000   -0.22107
2453.50000   -0.21858
2454.00000   -0.21080
2454.50000   -0.19755
2455.00000   -0.17877
2455.50000   -0.15455
2456.00000   -0.12512
2456.50000   -0.09083
2457.00000   -0.05218
2457.50000   -0.00978
2458.00000    0.03567
2458.50000    0.08336
2459.00000    0.13246
2459.50000    0.18208
2460.00000    0.23132
2460.50000    0.27929
2461.00000    0.32514
2461.50000    0.36806
2462.00000    0.40733
2462.50000    0.44228
2463.00000    0.47235
2463.50000    0.49708
2464.00000    0.51609
2464.50000    0.52915
2465.00000    0.53610
2465.50000    0.53692
2466.00000    0.53168
2466.50000    0.52058
2467.00000    0.50391
2467.50000    0.48207
2468.00000    0.45556
2468.50000    0.42496
2469.00000    0.39094
2469.50000    0.35423
2470.00000    0.31560
2470.50000    0.27589
2471.00000    0.23591
2471.50000    0.19650
2472.00000    0.15845
2472.50000    0.12252
2473.00000    0.08939
2473.50000    0.05968
2474.00000    0.03389
2474.50000    0.01240
2475.00000   -0.00449
2475.50000   -0.01664
2476.00000   -0.02400
2476.50000   -0.02665
2477.00000   -0.02480
2477.50000   -0.01873
2478.00000   -0.00882
2478.50000    0.00446
2479.00000    0.02058
2479.50000    0.03897
2480.00000    0.05898
2480.50000    0.07997
2481.00000    0.10125
2481.50000    0.12210
2482.00000    0.14183
2482.50000    0.15972
2483.00000    0.17508
2483.50000    0.18722
2484.00000    0.19551
2484.50000    0.19934
2485.00000    0.19820
2485.50000    0.19163
2486.00000    0.17931
2486.50000    0.16101
2487.00000    0.13666
2487.50000    0.10635
2488.00000    0.07033
2488.50000    0.02901
2489.00000   -0.01700
2489.50000   -0.06693
2490.00000   -0.11985
2490.50000   -0.17470
2491.00000   -0.23030
2491.50000   -0.28542
2492.00000   -0.33877
2492.50000   -0.38906
2493.00000   -0.43505
2493.50000   -0.47561
2494.00000   -0.50971
2494.50000   -0.53646
2495.00000   -0.55520
2495.50000   -0.56545
2496.00000   -0.56696
2496.50000   -0.55971
2497.00000   -0.54388
2497.50000   -0.51990
2498.00000   -0.48834
2498.50000   -0.45000
2499.00000   -0.40576
2499.50000   -0.35664
2500.00000   -0.30374
2500.50000   -0.24817
2501.00000   -0.19107
2501.50000   -0.13355
2502.00000   -0.07666
2502.50000   -0.02137
2503.00000    0.03144
2503.50000    0.08101
2504.00000    0.12671
2504.50000    0.16803
2505.00000    0.20462
2505.50000    0.23624
2506.00000    0.26280
2506.50000    0.28432
2507.00000    0.30094
2507.50000    0.31290
2508.00000    0.32053
2508.50000    0.32422
2509.00000    0.32440
2509.50000    0.32156
2510.00000    0.31618
2510.50000    0.30875
2511.00000    0.29976
2511.50000    0.28962
2512.00000    0.27874
2512.50000    0.26746
2513.00000    0.25605
2513.50000    0.24470
2514.00000    0.23357
2514.50000    0.22269
2515.00000    0.21208
2515.50000    0.20165
2516.00000    0.19129
2516.50000    0.18081
2517.00000    0.17002
2517.50000    0.15867
2518.00000    0.14654
2518.50000    0.13338
2519.00000    0.11896
2519.50000    0.10310
2520.00000    0.08563
2520.50000    0.06644
2521.00000    0.04549
2521.50000    0.02280
2522.00000   -0.00156
2522.50000   -0.02742
2523.00000   -0.05454
2523.50000   -0.08259
2524.00000   -0.11118
2524.50000   -0.13987
2525.00000   -0.16810
2525.50000   -0.19533
2526.00000   -0.22092
2526.50000   -0.24424
2527.00000   -0.26464
2527.50000   -0.28148
2528.00000   -0.29415
2528.50000   -0.30208
2529.00000   -0.30476
2529.50000   -0.30179
2530.00000   -0.29284
2530.50000   -0.27771
2531.00000   -0.25632
2531.50000   -0.22873
2532.00000   -0.19513
2532.50000   -0.15588
2533.00000   -0.11144
2533.50000   -0.06243
2534.00000   -0.00958
2534.50000    0.04628
2535.00000    0.10421
2535.50000    0.16323
2536.00000    0.22229
2536.50000    0.28034
2537.00000    0.33634
2537.50000    0.38925
2538.00000    0.43812
2538.50000    0.48208
2539.00000    0.52035
2539.50000    0.55227
2540.00000    0.57734
2540.50000    0.59518
2541.00000    0.60559
2541.50000    0.60852
2542.00000    0.60405
2542.50000    0.59245
2543.00000    0.57410
2543.50000    0.54951
2544.00000    0.51930
2544.50000    0.48415
2545.00000    0.44486
2545.50000    0.40222
2546.00000    0.35706
2546.50000    0.31023
2547.00000    0.26255
2547.50000    0.21478
2548.00000    0.16768
2548.50000    0.12191
2549.00000    0.07808
2549.50000    0.03672
2550.00000   -0.00171
2550.50000   -0.03684
2551.00000   -0.06837
2551.50000   -0.09607
2552.00000   -0.11980
2552.50000   -0.13949
2553.00000   -0.15512
2553.50000   -0.16673
2554.00000   -0.17445
2554.50000   -0.17843
2555.00000   -0.17887
2555.50000   -0.17604
2556.00000   -0.17022
2556.50000   -0.16173
2557.00000   -0.15093
2557.50000   -0.13816
2558.00000   -0.12381
2558.50000   -0.10823
2559.00000   -0.09178
2559.50000   -0.07479
2560.00000   -0.05757
2560.50000   -0.04038
2561.00000   -0.02345
2561.50000   -0.00697
2562.00000    0.00892
2562.50000    0.02414
2563.00000    0.03862
2563.50000    0.05234
2564.00000    0.06532
2564.50000    0.07757
2565.00000    0.08913
2565.50000    0.10006
2566.00000    0.11037
2566.50000    0.12011
2567.00000    0.12928
2567.50000    0.13789
2568.00000    0.14592
2568.50000    0.15333
2569.00000    0.16009
2569.50000    0.16613
2570.00000    0.17140
2570.50000    0.17584
2571.00000    0.17940
2571.50000    0.18203
2572.00000    0.18368
2572.50000    0.18432
2573.00000    0.18391
2573.50000    0.18243
2574.00000    0.17984
2574.50000    0.17614
2575.00000    0.17128
2575.50000    0.16524
2576.00000    0.15798
2576.50000    0.14947
2577.00000    0.13969
2577.50000    0.12862
2578.00000    0.11626
2578.50000    0.10263
2579.00000    0.08779
2579.50000    0.07184
2580.00000    0.05491
2580.50000    0.03717
2581.00000    0.01885
2581.50000    0.00019
2582.00000   -0.01852
2582.50000   -0.03697
2583.00000   -0.05487
2583.50000   -0.07191
2584.00000   -0.08783
2584.50000   -0.10238
2585.00000   -0.11538
2585.50000   -0.12671
2586.00000   -0.13633
2586.50000   -0.14424
2587.00000   -0.15055
2587.50000   -0.15540
2588.00000   -0.15899
2588.50000   -0.16159
2589.00000   -0.16345
2589.50000   -0.16485
2590.00000   -0.16605
2590.50000   -0.16730
2591.00000   -0.16878
2591.50000   -0.17064
2592.00000   -0.17293
2592.50000   -0.17569
2593.00000   -0.17883
2593.50000   -0.18224
2594.00000   -0.18573
2594.50000   -0.18907
2595.00000   -0.19199
2595.50000   -0.19421
2596.00000   -0.19542
2596.50000   -0.19533
2597.00000   -0.19365
2597.50000   -0.19013
2598.00000   -0.18457
2598.50000   -0.17679
2599.00000   -0.16668
2599.50000   -0.15420
2600.00000   -0.13938
2600.50000   -0.12229
2601.00000   -0.10311
2601.50000   -0.08208
2602.00000   -0.05951
2602.50000   -0.03580
2603.00000   -0.01141
2603.50000    0.01315
2604.00000    0.03729
2604.50000    0.06043
2605.00000    0.08192
2605.50000    0.10114
2606.00000    0.11750
2606.50000    0.13042
2607.00000    0.13943
2607.50000    0.14412
2608.00000    0.14420
2608.50000    0.13953
2609.00000    0.13009
2609.50000    0.11602
2610.00000    0.09760
2610.50000    0.07526
2611.00000    0.04956
2611.50000    0.02117
2612.00000   -0.00915
2612.50000   -0.04057
2613.00000   -0.07226
2613.50000   -0.10334
2614.00000   -0.13301
2614.50000   -0.16049
2615.00000   -0.18511
2615.50000   -0.20628
2616.00000   -0.22353
2616.50000   -0.23652
2617.00000   -0.24503
2617.50000   -0.24896
2618.00000   -0.24833
2618.50000   -0.24328
2619.00000   -0.23401
2619.50000   -0.22084
2620.00000   -0.20413
2620.50000   -0.18429
2621.00000   -0.16176
2621.50000   -0.13704
2622.00000   -0.11060
2622.50000   -0.08293
2623.00000   -0.05453
2623.50000   -0.02587
2624.00000    0.00259
2624.50000    0.03039
2625.00000    0.05713
2625.50000    0.08243
2626.00000    0.10592
2626.50000    0.12731
2627.00000    0.14634
2627.50000    0.16277
2628.00000    0.17646
2628.50000    0.18727
2629.00000    0.19513
2629.50000    0.20004
2630.00000    0.20200
2630.50000    0.20109
2631.00000    0.19739
2631.50000    0.19104
2632.00000    0.18219
2632.50000    0.17103
2633.00000    0.15774
2633.50000    0.14255
2634.00000    0.12571
2634.50000    0.10748
2635.00000    0.08818
2635.50000    0.06812
2636.00000    0.04770
2636.50000    0.02733
2637.00000    0.00747
2637.50000   -0.01139
2638.00000   -0.02872
2638.50000   -0.04395
2639.00000   -0.05653
2639.50000   -0.06590
2640.00000   -0.07152
2640.50000   -0.07291
2641.00000   -0.06965
2641.50000   -0.06141
2642.00000   -0.04795
2642.50000   -0.02916
2643.00000   -0.00504
2643.50000    0.02428
2644.00000    0.05858
2644.50000    0.09750
2645.00000    0.14064
2645.50000    0.18750
2646.00000    0.23757
2646.50000    0.29032
2647.00000    0.34524
2647.50000    0.40189
2648.00000    0.45988
2648.50000    0.51892
2649.00000    0.57885
2649.50000    0.63960
2650.00000    0.70125
2650.50000    0.76400
2651.00000    0.82818
2651.50000    0.89421
2652.00000    0.96264
2652.50000    1.03408
2653.00000    1.10921
2653.50000    1.18877
2654.00000    1.27351
2654.50000    1.36422
2655.00000    1.46164
2655.50000    1.56652
2656.00000    1.67955
2656.50000    1.80136
2657.00000    1.93250
2657.50000    2.07342
2658.00000    2.22448
2658.50000    2.38588
2659.00000    2.55770
2659.50000    2.73987
2660.00000    2.93213
2660.50000    3.13409
2661.00000    3.34517
2661.50000    3.56461
2662.00000    3.79152
2662.50000    4.02485
2663.00000    4.26342
2663.50000    4.50596
2664.00000    4.75114
2664.50000    4.99756
2665.00000    5.24385
2665.50000    5.48866
2666.00000    5.73072
2666.50000    5.96885
2667.00000    6.20202
2667.50000    6.42932
2668.00000    6.65005
2668.50000    6.86366
2669.00000    7.06978
2669.50000    7.26822
2670.00000    7.45895
2670.50000    7.64207
2671.00000    7.81778
2671.50000    7.98636
2672.00000    8.14814
2672.50000    8.30346
2673.00000    8.45264
2673.50000    8.59596
2674.00000    8.73363
2674.50000    8.86576
2675.00000    8.99236
2675.50000    9.11336
2676.00000    9.22854
2676.50000    9.33762
2677.00000    9.44022
2677.50000    9.53588
2678.00000    9.62411
2678.50000    9.70437
2679.00000    9.77612
2679.50000    9.83880
2680.00000    9.89192
2680.50000    9.93500
2681.00000    9.96760
2681.50000    9.98937
2682.00000   10.00000
2682.50000    9.99924
2683.00000    9.98689
2683.50000    9.96285
2684.00000    9.92701
2684.50000    9.87937
2685.00000    9.81994
2685.50000    9.74877
2686.00000    9.66597
2686.50000    9.57170
2687.00000    9.46614
2687.50000    9.34955
2688.00000    9.22220
2688.50000    9.08448
2689.00000    8.93677
2689.50000    8.77957
2690.00000    8.61340
2690.50000    8.43885
2691.00000    8.25655
2691.50000    8.06719
2692.00000    7.87146
2692.50000    7.67008
2693.00000    7.46378
2693.50000    7.25325
2694.00000    7.03918
2694.50000    6.82222
2695.00000    6.60299
2695.50000    6.38206
2696.00000    6.15998
2696.50000    5.93727
2697.00000    5.71444
2697.50000    5.49198
2698.00000    5.27040
2698.50000    5.05026
2699.00000    4.83213
2699.50000    4.61664
2700.00000    4.40447
2700.50000    4.19634
2701.00000    3.99303
2701.50000    3.79531
2702.00000    3.60399
2702.50000    3.41983
2703.00000    3.24356
2703.50000    3.07581
2704.00000    2.91710
2704.50000    2.76780
2705.00000    2.62814
2705.50000    2.49814
2706.00000    2.37766
2706.50000    2.26635
2707.00000    2.16371
2707.50000    2.06908
2708.00000    1.98165
2708.50000    1.90054
2709.00000    1.82482
2709.50000    1.75352
2710.00000    1.68574
2710.50000    1.62060
2711.00000    1.55734
2711.50000    1.49530
2712.00000    1.43397
2712.50000    1.37299
2713.00000    1.31213
2713.50000    1.25131
2714.00000    1.19057
2714.50000    1.13008
2715.00000    1.07007
2715.50000    1.01084
2716.00000    0.95273
2716.50000    0.89607
2717.00000    0.84120
2717.50000    0.78843
2718.00000    0.73801
2718.50000    0.69016
2719.00000    0.64502
2719.50000    0.60268
2720.00000    0.56318
2720.50000    0.52649
2721.00000    0.49255
2721.50000    0.46126
2722.00000    0.43248
2722.50000    0.40608
2723.00000    0.38189
2723.50000    0.35976
2724.00000    0.33952
2724.50000    0.32101
2725.00000    0.30409
2725.50000    0.28862
2726.00000    0.27444
2726.50000    0.26144
2727.00000    0.24947
2727.50000    0.23841
2728.00000    0.22812
2728.50000    0.21845
2729.00000    0.20925
2729.50000    0.20036
2730.00000    0.19160
2730.50000    0.18281
2731.00000    0.17377
2731.50000    0.16430
2732.00000    0.15421
2732.50000    0.14329
2733.00000    0.13137
2733.50000    0.11829
2734.00000    0.10390
2734.50000    0.08811
2735.00000    0.07085
2735.50000    0.05211
2736.00000    0.03192
2736.50000    0.01039
2737.00000   -0.01234
2737.50000   -0.03604
2738.00000   -0.06045
2738.50000   -0.08525
2739.00000   -0.11007
2739.50000   -0.13452
2740.00000   -0.15819
2740.50000   -0.18067
2741.00000   -0.20155
2741.50000   -0.22045
2742.00000   -0.23704
2742.50000   -0.25105
2743.00000   -0.26226
2743.50000   -0.27054
2744.00000   -0.27584
2744.50000   -0.27820
2745.00000   -0.27775
2745.50000   -0.27469
2746.00000   -0.26931
2746.50000   -0.26194
2747.00000   -0.25299
2747.50000   -0.24286
2748.00000   -0.23201
2748.50000   -0.22085
2749.00000   -0.20982
2749.50000   -0.19927
2750.00000   -0.18953
2750.50000   -0.18086
2751.00000   -0.17344
2751.50000   -0.16737
2752.00000   -0.16270
2752.50000   -0.15936
2753.00000   -0.15726
2753.50000   -0.15621
2754.00000   -0.15600
2754.50000   -0.15639
2755.00000   -0.15711
2755.50000   -0.15791
2756.00000   -0.15854
2756.50000   -0.15878
2757.00000   -0.15845
2757.50000   -0.15743
2758.00000   -0.15564
2758.50000   -0.15307
2759.00000   -0.14973
2759.50000   -0.14573
2760.00000   -0.14117
2760.50000   -0.13622
2761.00000   -0.13106
2761.50000   -0.12587
2762.00000   -0.12084
2762.50000   -0.11616
2763.00000   -0.11198
2763.50000   -0.10843
2764.00000   -0.10561
2764.50000   -0.10358
2765.00000   -0.10236
2765.50000   -0.10192
2766.00000   -0.10221
2766.50000   -0.10312
2767.00000   -0.10452
2767.50000   -0.10625
2768.00000   -0.10813
2768.50000   -0.10994
2769.00000   -0.11148
2769.50000   -0.11252
2770.00000   -0.11285
2770.50000   -0.11225
2771.00000   -0.11053
2771.50000   -0.10752
2772.00000   -0.10308
2772.50000   -0.09708
2773.00000   -0.08947
2773.50000   -0.08020
2774.00000   -0.06930
2774.50000   -0.05682
2775.00000   -0.04286
2775.50000   -0.02756
2776.00000   -0.01112
2776.50000    0.00627
2777.00000    0.02436
2777.50000    0.04290
2778.00000    0.06164
2778.50000    0.08031
2779.00000    0.09866
2779.50000    0.11647
2780.00000    0.13352
2780.50000    0.14964
2781.00000    0.16466
2781.50000    0.17848
2782.00000    0.19099
2782.50000    0.20213
2783.00000    0.21186
2783.50000    0.22014
2784.00000    0.22698
2784.50000    0.23236
2785.00000    0.23628
2785.50000    0.23875
2786.00000    0.23978
2786.50000    0.23937
2787.00000    0.23753
2787.50000    0.23428
2788.00000    0.22965
2788.50000    0.22367
2789.00000    0.21640
2789.50000    0.20790
2790.00000    0.19828
2790.50000    0.18764
2791.00000    0.17612
2791.50000    0.16388
2792.00000    0.15106
2792.50000    0.13785
2793.00000    0.12442
2793.50000    0.11093
2794.00000    0.09755
2794.50000    0.08439
2795.00000    0.07159
2795.50000    0.05922
2796.00000    0.04733
2796.50000    0.03594
2797.00000    0.02505
2797.50000    0.01462
2798.00000    0.00460
2798.50000   -0.00508
2799.00000   -0.01451
2799.50000   -0.02374
2800.00000   -0.03286
2800.50000   -0.04189
2801.00000   -0.05085
2801.50000   -0.05973
2802.00000   -0.06847
2802.50000   -0.07697
2803.00000   -0.08510
2803.50000   -0.09270
2804.00000   -0.09956
2804.50000   -0.10547
2805.00000   -0.11019
2805.50000   -0.11348
2806.00000   -0.11511
2806.50000   -0.11489
2807.00000   -0.11264
2807.50000   -0.10823
2808.00000   -0.10158
2808.50000   -0.09269
2809.00000   -0.08157
2809.50000   -0.06836
2810.00000   -0.05320
2810.50000   -0.03634
2811.00000   -0.01804
2811.50000    0.00138
2812.00000    0.02156
2812.50000    0.04213
2813.00000    0.06272
2813.50000    0.08294
2814.00000    0.10244
2814.50000    0.12086
2815.00000    0.13790
2815.50000    0.15329
2816.00000    0.16680
2816.50000    0.17825
2817.00000    0.18751
2817.50000    0.19450
2818.00000    0.19919
2818.50000    0.20159
2819.00000    0.20176
2819.50000    0.19981
2820.00000    0.19588
2820.50000    0.19013
2821.00000    0.18275
2821.50000    0.17397
2822.00000    0.16400
2822.50000    0.15309
2823.00000    0.14146
2823.50000    0.12932
2824.00000    0.11689
2824.50000    0.10431
2825.00000    0.09173
2825.50000    0.07925
2826.00000    0.06690
2826.50000    0.05469
2827.00000    0.04259
2827.50000    0.03051
2828.00000    0.01834
2828.50000    0.00595
2829.00000   -0.00679
2829.50000   -0.02001
2830.00000   -0.03383
2830.50000   -0.04832
2831.00000   -0.06352
2831.50000   -0.07938
2832.00000   -0.09583
2832.50000   -0.11271
2833.00000   -0.12979
2833.50000   -0.14680
2834.00000   -0.16340
2834.50000   -0.17925
2835.00000   -0.19397
2835.50000   -0.20718
2836.00000   -0.21854
2836.50000   -0.22772
2837.00000   -0.23449
2837.50000   -0.23863
2838.00000   -0.24004
2838.50000   -0.23868
2839.00000   -0.23458
2839.50000   -0.22785
2840.00000   -0.21864
2840.50000   -0.20717
2841.00000   -0.19367
2841.50000   -0.17837
2842.00000   -0.16152
2842.50000   -0.14332
2843.00000   -0.12395
2843.50000   -0.10351
2844.00000   -0.08209
2844.50000   -0.05970
2845.00000   -0.03629
2845.50000   -0.01178
2846.00000    0.01395
2846.50000    0.04103
2847.00000    0.06961
2847.50000    0.09983
2848.00000    0.13181
2848.50000    0.16560
2849.00000    0.20127
2849.50000    0.23878
2850.00000    0.27807
2850.50000    0.31903
2851.00000    0.36148
2851.50000    0.40522
2852.00000    0.45003
2852.50000    0.49564
2853.00000    0.54181
2853.50000    0.58828
2854.00000    0.63481
2854.50000    0.68120
2855.00000    0.72725
2855.50000    0.77280
2856.00000    0.81774
2856.50000    0.86195
2857.00000    0.90535
2857.50000    0.94787
2858.00000    0.98942
2858.50000    1.02991
2859.00000    1.06924
2859.50000    1.10727
2860.00000    1.14383
2860.50000    1.17871
2861.00000    1.21166
2861.50000    1.24241
2862.00000    1.27064
2862.50000    1.29603
2863.00000    1.31826
2863.50000    1.33700
2864.00000    1.35195
2864.50000    1.36283
2865.00000    1.36941
2865.50000    1.37150
2866.00000    1.36899
2866.50000    1.36177
2867.00000    1.34981
2867.50000    1.33313
2868.00000    1.31176
2868.50000    1.28575
2869.00000    1.25518
2869.50000    1.22012
2870.00000    1.18064
2870.50000    1.13681
2871.00000    1.08869
2871.50000    1.03633
2872.00000    0.97979
2872.50000    0.91918
2873.00000    0.85460
2873.50000    0.78626
2874.00000    0.71442
2874.50000    0.63945
2875.00000    0.56181
2875.50000    0.48211
2876.00000    0.40110
2876.50000    0.31963
2877.00000    0.23870
2877.50000    0.15941
2878.00000    0.08294
2878.50000    0.01053
2879.00000   -0.05656
2879.50000   -0.11707
2880.00000   -0.16983
2880.50000   -0.21373
2881.00000   -0.24782
2881.50000   -0.27130
2882.00000   -0.28357
2882.50000   -0.28423
2883.00000   -0.27311
2883.50000   -0.25028
2884.00000   -0.21601
2884.50000   -0.17077
2885.00000   -0.11522
2885.50000   -0.05019
2886.00000    0.02340
2886.50000    0.10449
2887.00000    0.19200
2887.50000    0.28481
2888.00000    0.38180
2888.50000    0.48190
2889.00000    0.58409
2889.50000    0.68744
2890.00000    0.79111
2890.50000    0.89437
2891.00000    0.99664
2891.50000    1.09740
2892.00000    1.19629
2892.50000    1.29305
2893.00000    1.38751
2893.50000    1.47962
2894.00000    1.56937
2894.50000    1.65686
2895.00000    1.74222
2895.50000    1.82563
2896.00000    1.90732
2896.50000    1.98753
2897.00000    2.06651
2897.50000    2.14452
2898.00000    2.22183
2898.50000    2.29868
2899.00000    2.37526
2899.50000    2.45176
