1200.50000    0.14054
1201.00000    0.13236
1201.50000    0.12416
1202.00000    0.11590
1202.50000    0.10758
1203.00000    0.09921
1203.50000    0.09078
1204.00000    0.08233
1204.50000    0.07389
1205.00000    0.06550
1205.50000    0.05723
1206.00000    0.04914
1206.50000    0.04128
1207.00000    0.03373
1207.50000    0.02654
1208.00000    0.01977
1208.50000    0.01345
1209.00000    0.00764
1209.50000    0.00234
1210.00000   -0.00244
1210.50000   -0.00670
1211.00000   -0.01046
1211.50000   -0.01375
1212.00000   -0.01661
1212.50000   -0.01907
1213.00000   -0.02120
1213.50000   -0.02303
1214.00000   -0.02463
1214.50000   -0.02604
1215.00000   -0.02731
1215.50000   -0.02849
1216.00000   -0.02960
1216.50000   -0.03069
1217.00000   -0.03178
1217.50000   -0.03288
1218.00000   -0.03401
1218.50000   -0.03518
1219.00000   -0.03639
1219.50000   -0.03764
1220.00000   -0.03894
1220.50000   -0.04028
1221.00000   -0.04167
1221.50000   -0.04310
1222.00000   -0.04457
1222.50000   -0.04610
1223.00000   -0.04769
1223.50000   -0.04934
1224.00000   -0.05107
1224.50000   -0.05288
1225.00000   -0.05480
1225.50000   -0.05684
1226.00000   -0.05902
1226.50000   -0.06134
1227.00000   -0.06383
1227.50000   -0.06650
1228.00000   -0.06935
1228.50000   -0.07240
1229.00000   -0.07564
1229.50000   -0.07906
1230.00000   -0.08264
1230.50000   -0.08638
1231.00000   -0.09022
1231.50000   -0.09412
1232.00000   -0.09803
1232.50000   -0.10188
1233.00000   -0.10559
1233.50000   -0.10907
1234.00000   -0.11221
1234.50000   -0.11493
1235.00000   -0.11709
1235.50000   -0.11859
1236.00000   -0.11932
1236.50000   -0.11916
1237.00000   -0.11803
1237.50000   -0.11584
1238.00000   -0.11253
1238.50000   -0.10804
1239.00000   -0.10237
1239.50000   -0.09551
1240.00000   -0.08750
1240.50000   -0.07841
1241.00000   -0.06833
1241.50000   -0.05737
1242.00000   -0.04569
1242.50000   -0.03346
1243.00000   -0.02086
1243.50000   -0.00808
1244.00000    0.00467
1244.50000    0.01718
1245.00000    0.02926
1245.50000    0.04073
1246.00000    0.05140
1246.50000    0.06115
1247.00000    0.06986
1247.50000    0.07743
1248.00000    0.08381
1248.50000    0.08899
1249.00000    0.09298
1249.50000    0.09582
1250.00000    0.09759
1250.50000    0.09841
1251.00000    0.09839
1251.50000    0.09769
1252.00000    0.09646
1252.50000    0.09489
1253.00000    0.09314
1253.50000    0.09139
1254.00000    0.08979
1254.50000    0.08849
1255.00000    0.08764
1255.50000    0.08734
1256.00000    0.08768
1256.50000    0.08874
1257.00000    0.09056
1257.50000    0.09315
1258.00000    0.09649
1258.50000    0.10056
1259.00000    0.10528
1259.50000    0.11057
1260.00000    0.11631
1260.50000    0.12238
1261.00000    0.12863
1261.50000    0.13489
1262.00000    0.14100
1262.50000    0.14677
1263.00000    0.15203
1263.50000    0.15658
1264.00000    0.16024
1264.50000    0.16286
1265.00000    0.16426
1265.50000    0.16431
1266.00000    0.16287
1266.50000    0.15986
1267.00000    0.15521
1267.50000    0.14887
1268.00000    0.14083
1268.50000    0.13113
1269.00000    0.11984
1269.50000    0.10705
1270.00000    0.09289
1270.50000    0.07755
1271.00000    0.06122
1271.50000    0.04413
1272.00000    0.02653
1272.50000    0.00869
1273.00000   -0.00912
1273.50000   -0.02661
1274.00000   -0.04351
1274.50000   -0.05953
1275.00000   -0.07445
1275.50000   -0.08802
1276.00000   -0.10006
1276.50000   -0.11040
1277.00000   -0.11894
1277.50000   -0.12561
1278.00000   -0.13038
1278.50000   -0.13329
1279.00000   -0.13440
1279.50000   -0.13384
1280.00000   -0.13175
1280.50000   -0.12833
1281.00000   -0.12380
1281.50000   -0.11839
1282.00000   -0.11236
1282.50000   -0.10594
1283.00000   -0.09940
1283.50000   -0.09295
1284.00000   -0.08681
1284.50000   -0.08116
1285.00000   -0.07615
1285.50000   -0.07188
1286.00000   -0.06841
1286.50000   -0.06578
1287.00000   -0.06396
1287.50000   -0.06291
1288.00000   -0.06253
1288.50000   -0.06274
1289.00000   -0.06338
1289.50000   -0.06433
1290.00000   -0.06544
1290.50000   -0.06656
1291.00000   -0.06757
1291.50000   -0.06836
1292.00000   -0.06884
1292.50000   -0.06895
1293.00000   -0.06866
1293.50000   -0.06798
1294.00000   -0.06694
1294.50000   -0.06560
1295.00000   -0.06405
1295.50000   -0.06240
1296.00000   -0.06075
1296.50000   -0.05923
1297.00000   -0.05794
1297.50000   -0.05698
1298.00000   -0.05645
1298.50000   -0.05638
1299.00000   -0.05682
1299.50000   -0.05774
1300.00000   -0.05911
1300.50000   -0.06086
1301.00000   -0.06288
1301.50000   -0.06502
1302.00000   -0.06714
1302.50000   -0.06906
1303.00000   -0.07061
1303.50000   -0.07162
1304.00000   -0.07192
1304.50000   -0.07137
1305.00000   -0.06987
1305.50000   -0.06735
1306.00000   -0.06375
1306.50000   -0.05910
1307.00000   -0.05345
1307.50000   -0.04687
1308.00000   -0.03951
1308.50000   -0.03154
1309.00000   -0.02314
1309.50000   -0.01452
1310.00000   -0.00591
1310.50000    0.00247
1311.00000    0.01041
1311.50000    0.01771
1312.00000    0.02421
1312.50000    0.02977
1313.00000    0.03430
1313.50000    0.03775
1314.00000    0.04010
1314.50000    0.04138
1315.00000    0.04167
1315.50000    0.04107
1316.00000    0.03972
1316.50000    0.03777
1317.00000    0.03541
1317.50000    0.03283
1318.00000    0.03021
1318.50000    0.02773
1319.00000    0.02557
1319.50000    0.02389
1320.00000    0.02282
1320.50000    0.02248
1321.00000    0.02295
1321.50000    0.02432
1322.00000    0.02663
1322.50000    0.02991
1323.00000    0.03418
1323.50000    0.03947
1324.00000    0.04576
1324.50000    0.05309
1325.00000    0.06145
1325.50000    0.07088
1326.00000    0.08141
1326.50000    0.09310
1327.00000    0.10601
1327.50000    0.12023
1328.00000    0.13587
1328.50000    0.15304
1329.00000    0.17189
1329.50000    0.19254
1330.00000    0.21516
1330.50000    0.23989
1331.00000    0.26687
1331.50000    0.29625
1332.00000    0.32812
1332.50000    0.36260
1333.00000    0.39975
1333.50000    0.43959
1334.00000    0.48211
1334.50000    0.52726
1335.00000    0.57492
1335.50000    0.62493
1336.00000    0.67706
1336.50000    0.73102
1337.00000    0.78647
1337.50000    0.84299
1338.00000    0.90011
1338.50000    0.95731
1339.00000    1.01401
1339.50000    1.06961
1340.00000    1.12347
1340.50000    1.17493
1341.00000    1.22334
1341.50000    1.26805
1342.00000    1.30844
1342.50000    1.34393
1343.00000    1.37397
1343.50000    1.39813
1344.00000    1.41601
1344.50000    1.42732
1345.00000    1.43188
1345.50000    1.42960
1346.00000    1.42051
1346.50000    1.40474
1347.00000    1.38254
1347.50000    1.35424
1348.00000    1.32027
1348.50000    1.28114
1349.00000    1.23741
1349.50000    1.18970
1350.00000    1.13864
1350.50000    1.08490
1351.00000    1.02914
1351.50000    0.97202
1352.00000    0.91414
1352.50000    0.85609
1353.00000    0.79842
1353.50000    0.74161
1354.00000    0.68608
1354.50000    0.63220
1355.00000    0.58028
1355.50000    0.53058
1356.00000    0.48329
1356.50000    0.43858
1357.00000    0.39656
1357.50000    0.35730
1358.00000    0.32089
1358.50000    0.28734
1359.00000    0.25668
1359.50000    0.22892
1360.00000    0.20406
1360.50000    0.18209
1361.00000    0.16300
1361.50000    0.14673
1362.00000    0.13326
1362.50000    0.12250
1363.00000    0.11438
1363.50000    0.10877
1364.00000    0.10553
1364.50000    0.10448
1365.00000    0.10539
1365.50000    0.10803
1366.00000    0.11209
1366.50000    0.11727
1367.00000    0.12321
1367.50000    0.12956
1368.00000    0.13593
1368.50000    0.14195
1369.00000    0.14725
1369.50000    0.15147
1370.00000    0.15429
1370.50000    0.15541
1371.00000    0.15459
1371.50000    0.15166
1372.00000    0.14649
1372.50000    0.13903
1373.00000    0.12930
1373.50000    0.11740
1374.00000    0.10348
1374.50000    0.08777
1375.00000    0.07056
1375.50000    0.05218
1376.00000    0.03300
1376.50000    0.01340
1377.00000   -0.00619
1377.50000   -0.02539
1378.00000   -0.04381
1378.50000   -0.06109
1379.00000   -0.07691
1379.50000   -0.09101
1380.00000   -0.10317
1380.50000   -0.11325
1381.00000   -0.12116
1381.50000   -0.12689
1382.00000   -0.13048
1382.50000   -0.13205
1383.00000   -0.13176
1383.50000   -0.12982
1384.00000   -0.12648
1384.50000   -0.12200
1385.00000   -0.11666
1385.50000   -0.11075
1386.00000   -0.10453
1386.50000   -0.09827
1387.00000   -0.09219
1387.50000   -0.08648
1388.00000   -0.08130
1388.50000   -0.07675
1389.00000   -0.07292
1389.50000   -0.06984
1390.00000   -0.06748
1390.50000   -0.06582
1391.00000   -0.06478
1391.50000   -0.06427
1392.00000   -0.06418
1392.50000   -0.06439
1393.00000   -0.06479
1393.50000   -0.06527
1394.00000   -0.06573
1394.50000   -0.06608
1395.00000   -0.06625
1395.50000   -0.06621
1396.00000   -0.06592
1396.50000   -0.06538
1397.00000   -0.06461
1397.50000   -0.06364
1398.00000   -0.06251
1398.50000   -0.06128
1399.00000   -0.06002
1399.50000   -0.05879
1400.00000   -0.05765
1400.50000   -0.05668
1401.00000   -0.05592
1401.50000   -0.05542
1402.00000   -0.05523
1402.50000   -0.05536
1403.00000   -0.05583
1403.50000   -0.05664
1404.00000   -0.05777
1404.50000   -0.05921
1405.00000   -0.06091
1405.50000   -0.06284
1406.00000   -0.06496
1406.50000   -0.06719
1407.00000   -0.06949
1407.50000   -0.07180
1408.00000   -0.07405
1408.50000   -0.07619
1409.00000   -0.07815
1409.50000   -0.07988
1410.00000   -0.08135
1410.50000   -0.08250
1411.00000   -0.08330
1411.50000   -0.08373
1412.00000   -0.08379
1412.50000   -0.08346
1413.00000   -0.08276
1413.50000   -0.08170
1414.00000   -0.08032
1414.50000   -0.07864
1415.00000   -0.07672
1415.50000   -0.07460
1416.00000   -0.07233
1416.50000   -0.06996
1417.00000   -0.06754
1417.50000   -0.06510
1418.00000   -0.06267
1418.50000   -0.06029
1419.00000   -0.05795
1419.50000   -0.05564
1420.00000   -0.05334
1420.50000   -0.05101
1421.00000   -0.04859
1421.50000   -0.04601
1422.00000   -0.04320
1422.50000   -0.04008
1423.00000   -0.03654
1423.50000   -0.03252
1424.00000   -0.02792
1424.50000   -0.02271
1425.00000   -0.01682
1425.50000   -0.01024
1426.00000   -0.00296
1426.50000    0.00497
1427.00000    0.01349
1427.50000    0.02252
1428.00000    0.03193
1428.50000    0.04158
1429.00000    0.05131
1429.50000    0.06094
1430.00000    0.07027
1430.50000    0.07913
1431.00000    0.08732
1431.50000    0.09467
1432.00000    0.10106
1432.50000    0.10636
1433.00000    0.11050
1433.50000    0.11343
1434.00000    0.11515
1434.50000    0.11573
1435.00000    0.11523
1435.50000    0.11378
1436.00000    0.11155
1436.50000    0.10873
1437.00000    0.10551
1437.50000    0.10213
1438.00000    0.09881
1438.50000    0.09576
1439.00000    0.09318
1439.50000    0.09126
1440.00000    0.09013
1440.50000    0.08990
1441.00000    0.09064
1441.50000    0.09236
1442.00000    0.09503
1442.50000    0.09858
1443.00000    0.10290
1443.50000    0.10783
1444.00000    0.11320
1444.50000    0.11880
1445.00000    0.12443
1445.50000    0.12985
1446.00000    0.13485
1446.50000    0.13922
1447.00000    0.14278
1447.50000    0.14536
1448.00000    0.14683
1448.50000    0.14709
1449.00000    0.14609
1449.50000    0.14380
1450.00000    0.14024
1450.50000    0.13544
1451.00000    0.12948
1451.50000    0.12247
1452.00000    0.11451
1452.50000    0.10572
1453.00000    0.09625
1453.50000    0.08622
1454.00000    0.07574
1454.50000    0.06493
1455.00000    0.05389
1455.50000    0.04268
1456.00000    0.03137
1456.50000    0.02000
1457.00000    0.00860
1457.50000   -0.00283
1458.00000   -0.01428
1458.50000   -0.02575
1459.00000   -0.03725
1459.50000   -0.04878
1460.00000   -0.06034
1460.50000   -0.07190
1461.00000   -0.08342
1461.50000   -0.09487
1462.00000   -0.10616
1462.50000   -0.11721
1463.00000   -0.12794
1463.50000   -0.13821
1464.00000   -0.14792
1464.50000   -0.15694
1465.00000   -0.16516
1465.50000   -0.17246
1466.00000   -0.17873
1466.50000   -0.18390
1467.00000   -0.18789
1467.50000   -0.19067
1468.00000   -0.19220
1468.50000   -0.19248
1469.00000   -0.19155
1469.50000   -0.18944
1470.00000   -0.18620
1470.50000   -0.18191
1471.00000   -0.17663
1471.50000   -0.17044
1472.00000   -0.16340
1472.50000   -0.15558
1473.00000   -0.14703
1473.50000   -0.13777
1474.00000   -0.12782
1474.50000   -0.11721
1475.00000   -0.10591
1475.50000   -0.09392
1476.00000   -0.08124
1476.50000   -0.06783
1477.00000   -0.05372
1477.50000   -0.03891
1478.00000   -0.02343
1478.50000   -0.00735
1479.00000    0.00926
1479.50000    0.02626
1480.00000    0.04353
1480.50000    0.06087
1481.00000    0.07808
1481.50000    0.09496
1482.00000    0.11126
1482.50000    0.12675
1483.00000    0.14121
1483.50000    0.15441
1484.00000    0.16616
1484.50000    0.17631
1485.00000    0.18472
1485.50000    0.19131
1486.00000    0.19605
1486.50000    0.19893
1487.00000    0.20000
1487.50000    0.19936
1488.00000    0.19713
1488.50000    0.19347
1489.00000    0.18854
1489.50000    0.18255
1490.00000    0.17567
1490.50000    0.16810
1491.00000    0.16000
1491.50000    0.15153
1492.00000    0.14282
1492.50000    0.13396
1493.00000    0.12501
1493.50000    0.11603
1494.00000    0.10700
1494.50000    0.09793
1495.00000    0.08878
1495.50000    0.07949
1496.00000    0.07003
1496.50000    0.06032
1497.00000    0.05034
1497.50000    0.04003
1498.00000    0.02938
1498.50000    0.01840
1499.00000    0.00711
1499.50000   -0.00443
1500.00000   -0.01615
1500.50000   -0.02795
1501.00000   -0.03971
1501.50000   -0.05128
1502.00000   -0.06252
1502.50000   -0.07327
1503.00000   -0.08337
1503.50000   -0.09269
1504.00000   -0.10108
1504.50000   -0.10843
1505.00000   -0.11463
1505.50000   -0.11962
1506.00000   -0.12335
1506.50000   -0.12580
1507.00000   -0.12701
1507.50000   -0.12702
1508.00000   -0.12592
1508.50000   -0.12380
1509.00000   -0.12082
1509.50000   -0.11712
1510.00000   -0.11288
1510.50000   -0.10829
1511.00000   -0.10351
1511.50000   -0.09875
1512.00000   -0.09418
1512.50000   -0.08995
1513.00000   -0.08621
1513.50000   -0.08309
1514.00000   -0.08065
1514.50000   -0.07896
1515.00000   -0.07805
1515.50000   -0.07791
1516.00000   -0.07848
1516.50000   -0.07971
1517.00000   -0.08148
1517.50000   -0.08368
1518.00000   -0.08616
1518.50000   -0.08878
1519.00000   -0.09138
1519.50000   -0.09381
1520.00000   -0.09591
1520.50000   -0.09755
1521.00000   -0.09861
1521.50000   -0.09900
1522.00000   -0.09864
1522.50000   -0.09748
1523.00000   -0.09550
1523.50000   -0.09269
1524.00000   -0.08908
1524.50000   -0.08469
1525.00000   -0.07958
1525.50000   -0.07380
1526.00000   -0.06742
1526.50000   -0.06050
1527.00000   -0.05312
1527.50000   -0.04532
1528.00000   -0.03719
1528.50000   -0.02877
1529.00000   -0.02013
1529.50000   -0.01132
1530.00000   -0.00241
1530.50000    0.00654
1531.00000    0.01545
1531.50000    0.02424
1532.00000    0.03281
1532.50000    0.04106
1533.00000    0.04886
1533.50000    0.05609
1534.00000    0.06261
1534.50000    0.06829
1535.00000    0.07299
1535.50000    0.07660
1536.00000    0.07901
1536.50000    0.08014
1537.00000    0.07994
1537.50000    0.07842
1538.00000    0.07558
1538.50000    0.07151
1539.00000    0.06630
1539.50000    0.06012
1540.00000    0.05315
1540.50000    0.04561
1541.00000    0.03774
1541.50000    0.02979
1542.00000    0.02201
1542.50000    0.01466
1543.00000    0.00797
1543.50000    0.00213
1544.00000   -0.00269
1544.50000   -0.00639
1545.00000   -0.00888
1545.50000   -0.01015
1546.00000   -0.01023
1546.50000   -0.00922
1547.00000   -0.00722
1547.50000   -0.00440
1548.00000   -0.00093
1548.50000    0.00298
1549.00000    0.00713
1549.50000    0.01132
1550.00000    0.01537
1550.50000    0.01913
1551.00000    0.02246
1551.50000    0.02529
1552.00000    0.02757
1552.50000    0.02928
1553.00000    0.03048
1553.50000    0.03123
1554.00000    0.03165
1554.50000    0.03188
1555.00000    0.03206
1555.50000    0.03237
1556.00000    0.03299
1556.50000    0.03406
1557.00000    0.03577
1557.50000    0.03825
1558.00000    0.04164
1558.50000    0.04604
1559.00000    0.05155
1559.50000    0.05826
1560.00000    0.06623
1560.50000    0.07552
1561.00000    0.08619
1561.50000    0.09832
1562.00000    0.11197
1562.50000    0.12723
1563.00000    0.14423
1563.50000    0.16309
1564.00000    0.18400
1564.50000    0.20715
1565.00000    0.23278
1565.50000    0.26114
1566.00000    0.29252
1566.50000    0.32723
1567.00000    0.36558
1567.50000    0.40791
1568.00000    0.45453
1568.50000    0.50576
1569.00000    0.56190
1569.50000    0.62322
1570.00000    0.68993
1570.50000    0.76223
1571.00000    0.84025
1571.50000    0.92406
1572.00000    1.01367
1572.50000    1.10902
1573.00000    1.20998
1573.50000    1.31635
1574.00000    1.42784
1574.50000    1.54412
1575.00000    1.66474
1575.50000    1.78923
1576.00000    1.91702
1576.50000    2.04748
1577.00000    2.17995
1577.50000    2.31368
1578.00000    2.44791
1578.50000    2.58181
1579.00000    2.71454
1579.50000    2.84523
1580.00000    2.97297
1580.50000    3.09688
1581.00000    3.21602
1581.50000    3.32951
1582.00000    3.43645
1582.50000    3.53597
1583.00000    3.62724
1583.50000    3.70945
1584.00000    3.78186
1584.50000    3.84379
1585.00000    3.89464
1585.50000    3.93388
1586.00000    3.96109
1586.50000    3.97595
1587.00000    3.97824
1587.50000    3.96789
1588.00000    3.94494
1588.50000    3.90958
1589.00000    3.86210
1589.50000    3.80296
1590.00000    3.73271
1590.50000    3.65204
1591.00000    3.56175
1591.50000    3.46274
1592.00000    3.35597
1592.50000    3.24251
1593.00000    3.12343
1593.50000    2.99988
1594.00000    2.87300
1594.50000    2.74391
1595.00000    2.61373
1595.50000    2.48352
1596.00000    2.35430
1596.50000    2.22701
1597.00000    2.10248
1597.50000    1.98149
1598.00000    1.86469
1598.50000    1.75264
1599.00000    1.64577
1599.50000    1.54444
1600.00000    1.44889
1600.50000    1.35927
1601.00000    1.27565
1601.50000    1.19802
1602.00000    1.12628
1602.50000    1.06032
1603.00000    0.99992
1603.50000    0.94486
1604.00000    0.89488
1604.50000    0.84969
1605.00000    0.80898
1605.50000    0.77243
1606.00000    0.73973
1606.50000    0.71056
1607.00000    0.68460
1607.50000    0.66158
1608.00000    0.64119
1608.50000    0.62320
1609.00000    0.60736
1609.50000    0.59346
1610.00000    0.58133
1610.50000    0.57083
1611.00000    0.56184
1611.50000    0.55428
1612.00000    0.54809
1612.50000    0.54325
1613.00000    0.53975
1613.50000    0.53760
1614.00000    0.53680
1614.50000    0.53737
1615.00000    0.53931
1615.50000    0.54260
1616.00000    0.54721
1616.50000    0.55306
1617.00000    0.56005
1617.50000    0.56802
1618.00000    0.57677
1618.50000    0.58607
1619.00000    0.59564
1619.50000    0.60516
1620.00000    0.61428
1620.50000    0.62264
1621.00000    0.62986
1621.50000    0.63558
1622.00000    0.63944
1622.50000    0.64111
1623.00000    0.64031
1623.50000    0.63679
1624.00000    0.63038
1624.50000    0.62096
1625.00000    0.60848
1625.50000    0.59297
1626.00000    0.57449
1626.50000    0.55319
1627.00000    0.52925
1627.50000    0.50290
1628.00000    0.47441
1628.50000    0.44405
1629.00000    0.41212
1629.50000    0.37891
1630.00000    0.34471
1630.50000    0.30979
1631.00000    0.27440
1631.50000    0.23877
1632.00000    0.20311
1632.50000    0.16760
1633.00000    0.13241
1633.50000    0.09770
1634.00000    0.06362
1634.50000    0.03033
1635.00000   -0.00202
1635.50000   -0.03325
1636.00000   -0.06317
1636.50000   -0.09156
1637.00000   -0.11818
1637.50000   -0.14278
1638.00000   -0.16507
1638.50000   -0.18478
1639.00000   -0.20159
1639.50000   -0.21524
1640.00000   -0.22543
1640.50000   -0.23191
1641.00000   -0.23448
1641.50000   -0.23295
1642.00000   -0.22722
1642.50000   -0.21722
1643.00000   -0.20297
1643.50000   -0.18454
1644.00000   -0.16210
1644.50000   -0.13587
1645.00000   -0.10615
1645.50000   -0.07330
1646.00000   -0.03773
1646.50000    0.00010
1647.00000    0.03969
1647.50000    0.08051
1648.00000    0.12203
1648.50000    0.16371
1649.00000    0.20501
1649.50000    0.24543
1650.00000    0.28449
1650.50000    0.32175
1651.00000    0.35679
1651.50000    0.38929
1652.00000    0.41894
1652.50000    0.44550
1653.00000    0.46880
1653.50000    0.48872
1654.00000    0.50518
1654.50000    0.51817
1655.00000    0.52772
1655.50000    0.53392
1656.00000    0.53688
1656.50000    0.53674
1657.00000    0.53368
1657.50000    0.52788
1658.00000    0.51955
1658.50000    0.50888
1659.00000    0.49608
1659.50000    0.48135
1660.00000    0.46486
1660.50000    0.44679
1661.00000    0.42728
1661.50000    0.40649
1662.00000    0.38452
1662.50000    0.36148
1663.00000    0.33748
1663.50000    0.31260
1664.00000    0.28694
1664.50000    0.26058
1665.00000    0.23364
1665.50000    0.20624
1666.00000    0.17850
1666.50000    0.15059
1667.00000    0.12269
1667.50000    0.09500
1668.00000    0.06774
1668.50000    0.04116
1669.00000    0.01552
1669.50000   -0.00893
1670.00000   -0.03190
1670.50000   -0.05313
1671.00000   -0.07239
1671.50000   -0.08945
1672.00000   -0.10412
1672.50000   -0.11624
1673.00000   -0.12572
1673.50000   -0.13250
1674.00000   -0.13657
1674.50000   -0.13797
1675.00000   -0.13681
1675.50000   -0.13323
1676.00000   -0.12740
1676.50000   -0.11954
1677.00000   -0.10989
1677.50000   -0.09870
1678.00000   -0.08624
1678.50000   -0.07278
1679.00000   -0.05856
1679.50000   -0.04384
1680.00000   -0.02882
1680.50000   -0.01369
1681.00000    0.00136
1681.50000    0.01621
1682.00000    0.03074
1682.50000    0.04488
1683.00000    0.05855
1683.50000    0.07171
1684.00000    0.08435
1684.50000    0.09642
1685.00000    0.10792
1685.50000    0.11882
1686.00000    0.12911
1686.50000    0.13876
1687.00000    0.14774
1687.50000    0.15600
1688.00000    0.16350
1688.50000    0.17020
1689.00000    0.17602
1689.50000    0.18091
1690.00000    0.18482
1690.50000    0.18770
1691.00000    0.18950
1691.50000    0.19020
1692.00000    0.18975
1692.50000    0.18817
1693.00000    0.18545
1693.50000    0.18161
1694.00000    0.17668
1694.50000    0.17073
1695.00000    0.16381
1695.50000    0.15600
1696.00000    0.14738
1696.50000    0.13807
1697.00000    0.12816
1697.50000    0.11778
1698.00000    0.10704
1698.50000    0.09607
1699.00000    0.08499
1699.50000    0.07392
1700.00000    0.06299
1700.50000    0.05230
1701.00000    0.04195
1701.50000    0.03202
1702.00000    0.02259
1702.50000    0.01371
1703.00000    0.00541
1703.50000   -0.00231
1704.00000   -0.00947
1704.50000   -0.01611
1705.00000   -0.02229
1705.50000   -0.02809
1706.00000   -0.03363
1706.50000   -0.03902
1707.00000   -0.04437
1707.50000   -0.04980
1708.00000   -0.05543
1708.50000   -0.06136
1709.00000   -0.06767
1709.50000   -0.07439
1710.00000   -0.08155
1710.50000   -0.08912
1711.00000   -0.09704
1711.50000   -0.10520
1712.00000   -0.11346
1712.50000   -0.12163
1713.00000   -0.12952
1713.50000   -0.13689
1714.00000   -0.14352
1714.50000   -0.14916
1715.00000   -0.15360
1715.50000   -0.15663
1716.00000   -0.15808
1716.50000   -0.15782
1717.00000   -0.15578
1717.50000   -0.15191
1718.00000   -0.14626
1718.50000   -0.13889
1719.00000   -0.12994
1719.50000   -0.11960
1720.00000   -0.10808
1720.50000   -0.09565
1721.00000   -0.08258
1721.50000   -0.06916
1722.00000   -0.05569
1722.50000   -0.04243
1723.00000   -0.02965
1723.50000   -0.01757
1724.00000   -0.00639
1724.50000    0.00374
1725.00000    0.01272
1725.50000    0.02047
1726.00000    0.02697
1726.50000    0.03222
1727.00000    0.03627
1727.50000    0.03916
1728.00000    0.04098
1728.50000    0.04182
1729.00000    0.04177
1729.50000    0.04092
1730.00000    0.03935
1730.50000    0.03714
1731.00000    0.03434
1731.50000    0.03102
1732.00000    0.02720
1732.50000    0.02293
1733.00000    0.01822
1733.50000    0.01311
1734.00000    0.00762
1734.50000    0.00179
1735.00000   -0.00433
1735.50000   -0.01068
1736.00000   -0.01719
1736.50000   -0.02376
1737.00000   -0.03027
1737.50000   -0.03658
1738.00000   -0.04255
1738.50000   -0.04802
1739.00000   -0.05282
1739.50000   -0.05678
1740.00000   -0.05973
1740.50000   -0.06150
1741.00000   -0.06195
1741.50000   -0.06095
1742.00000   -0.05840
1742.50000   -0.05422
1743.00000   -0.04836
1743.50000   -0.04081
1744.00000   -0.03160
1744.50000   -0.02079
1745.00000   -0.00849
1745.50000    0.00518
1746.00000    0.02002
1746.50000    0.03583
1747.00000    0.05237
1747.50000    0.06938
1748.00000    0.08655
1748.50000    0.10358
1749.00000    0.12016
1749.50000    0.13595
1750.00000    0.15063
1750.50000    0.16390
1751.00000    0.17545
1751.50000    0.18502
1752.00000    0.19236
1752.50000    0.19729
1753.00000    0.19964
1753.50000    0.19932
1754.00000    0.19629
1754.50000    0.19055
1755.00000    0.18218
1755.50000    0.17132
1756.00000    0.15817
1756.50000    0.14296
1757.00000    0.12601
1757.50000    0.10764
1758.00000    0.08824
1758.50000    0.06820
1759.00000    0.04794
1759.50000    0.02786
1760.00000    0.00839
1760.50000   -0.01010
1761.00000   -0.02725
1761.50000   -0.04275
1762.00000   -0.05633
1762.50000   -0.06777
1763.00000   -0.07692
1763.50000   -0.08370
1764.00000   -0.08808
1764.50000   -0.09008
1765.00000   -0.08980
1765.50000   -0.08738
1766.00000   -0.08301
1766.50000   -0.07690
1767.00000   -0.06929
1767.50000   -0.06046
1768.00000   -0.05066
1768.50000   -0.04018
1769.00000   -0.02926
1769.50000   -0.01815
1770.00000   -0.00709
1770.50000    0.00372
1771.00000    0.01409
1771.50000    0.02386
1772.00000    0.03288
1772.50000    0.04104
1773.00000    0.04822
1773.50000    0.05433
1774.00000    0.05929
1774.50000    0.06301
1775.00000    0.06541
1775.50000    0.06643
1776.00000    0.06600
1776.50000    0.06405
1777.00000    0.06052
1777.50000    0.05537
1778.00000    0.04855
1778.50000    0.04005
1779.00000    0.02987
1779.50000    0.01803
1780.00000    0.00460
1780.50000   -0.01033
1781.00000   -0.02663
1781.50000   -0.04415
1782.00000   -0.06267
1782.50000   -0.08197
1783.00000   -0.10179
1783.50000   -0.12184
1784.00000   -0.14182
1784.50000   -0.16143
1785.00000   -0.18035
1785.50000   -0.19826
1786.00000   -0.21487
1786.50000   -0.22990
1787.00000   -0.24309
1787.50000   -0.25421
1788.00000   -0.26306
1788.50000   -0.26948
1789.00000   -0.27336
1789.50000   -0.27459
1790.00000   -0.27313
1790.50000   -0.26898
1791.00000   -0.26216
1791.50000   -0.25273
1792.00000   -0.24078
1792.50000   -0.22645
1793.00000   -0.20989
1793.50000   -0.19130
1794.00000   -0.17090
1794.50000   -0.14893
1795.00000   -0.12566
1795.50000   -0.10141
1796.00000   -0.07648
1796.50000   -0.05121
1797.00000   -0.02594
1797.50000   -0.00105
1798.00000    0.02312
1798.50000    0.04622
1799.00000    0.06790
1799.50000    0.08784
1800.00000    0.10577
1800.50000    0.12143
1801.00000    0.13461
1801.50000    0.14517
1802.00000    0.15299
1802.50000    0.15804
1803.00000    0.16035
1803.50000    0.15999
1804.00000    0.15711
1804.50000    0.15191
1805.00000    0.14463
1805.50000    0.13557
1806.00000    0.12503
1806.50000    0.11338
1807.00000    0.10097
1807.50000    0.08815
1808.00000    0.07529
1808.50000    0.06270
1809.00000    0.05071
1809.50000    0.03959
1810.00000    0.02956
1810.50000    0.02082
1811.00000    0.01350
1811.50000    0.00770
1812.00000    0.00346
1812.50000    0.00079
1813.00000   -0.00037
1813.50000   -0.00009
1814.00000    0.00152
1814.50000    0.00431
1815.00000    0.00814
1815.50000    0.01281
1816.00000    0.01815
1816.50000    0.02398
1817.00000    0.03011
1817.50000    0.03638
1818.00000    0.04262
1818.50000    0.04869
1819.00000    0.05448
1819.50000    0.05988
1820.00000    0.06481
1820.50000    0.06923
1821.00000    0.07311
1821.50000    0.07643
1822.00000    0.07921
1822.50000    0.08146
1823.00000    0.08324
1823.50000    0.08457
1824.00000    0.08552
1824.50000    0.08614
1825.00000    0.08647
1825.50000    0.08655
1826.00000    0.08641
1826.50000    0.08609
1827.00000    0.08558
1827.50000    0.08489
1828.00000    0.08400
1828.50000    0.08290
1829.00000    0.08156
1829.50000    0.07995
1830.00000    0.07803
1830.50000    0.07577
1831.00000    0.07315
1831.50000    0.07015
1832.00000    0.06676
1832.50000    0.06297
1833.00000    0.05881
1833.50000    0.05428
1834.00000    0.04944
1834.50000    0.04431
1835.00000    0.03895
1835.50000    0.03340
1836.00000    0.02773
1836.50000    0.02199
1837.00000    0.01621
1837.50000    0.01045
1838.00000    0.00472
1838.50000   -0.00095
1839.00000   -0.00655
1839.50000   -0.01210
1840.00000   -0.01760
1840.50000   -0.02308
1841.00000   -0.02857
1841.50000   -0.03409
1842.00000   -0.03968
1842.50000   -0.04537
1843.00000   -0.05117
1843.50000   -0.05710
1844.00000   -0.06314
1844.50000   -0.06929
1845.00000   -0.07549
1845.50000   -0.08171
1846.00000   -0.08787
1846.50000   -0.09389
1847.00000   -0.09968
1847.50000   -0.10513
1848.00000   -0.11014
1848.50000   -0.11460
1849.00000   -0.11840
1849.50000   -0.12145
1850.00000   -0.12365
1850.50000   -0.12493
1851.00000   -0.12525
1851.50000   -0.12456
1852.00000   -0.12286
1852.50000   -0.12016
1853.00000   -0.11649
1853.50000   -0.11191
1854.00000   -0.10649
1854.50000   -0.10033
1855.00000   -0.09353
1855.50000   -0.08620
1856.00000   -0.07845
1856.50000   -0.07039
1857.00000   -0.06214
1857.50000   -0.05377
1858.00000   -0.04538
1858.50000   -0.03703
1859.00000   -0.02875
1859.50000   -0.02056
1860.00000   -0.01247
1860.50000   -0.00444
1861.00000    0.00356
1861.50000    0.01160
1862.00000    0.01975
1862.50000    0.02810
1863.00000    0.03673
1863.50000    0.04577
1864.00000    0.05529
1864.50000    0.06540
1865.00000    0.07619
1865.50000    0.08774
1866.00000    0.10012
1866.50000    0.11340
1867.00000    0.12760
1867.50000    0.14277
1868.00000    0.15891
1868.50000    0.17601
1869.00000    0.19403
1869.50000    0.21293
1870.00000    0.23261
1870.50000    0.25299
1871.00000    0.27392
1871.50000    0.29526
1872.00000    0.31682
1872.50000    0.33838
1873.00000    0.35971
1873.50000    0.38054
1874.00000    0.40061
1874.50000    0.41960
1875.00000    0.43721
1875.50000    0.45313
1876.00000    0.46707
1876.50000    0.47873
1877.00000    0.48787
1877.50000    0.49425
1878.00000    0.49770
1878.50000    0.49809
1879.00000    0.49536
1879.50000    0.48951
1880.00000    0.48059
1880.50000    0.46874
1881.00000    0.45414
1881.50000    0.43705
1882.00000    0.41775
1882.50000    0.39659
1883.00000    0.37393
1883.50000    0.35016
1884.00000    0.32564
1884.50000    0.30075
1885.00000    0.27586
1885.50000    0.25126
1886.00000    0.22724
1886.50000    0.20403
1887.00000    0.18182
1887.50000    0.16073
1888.00000    0.14085
1888.50000    0.12223
1889.00000    0.10486
1889.50000    0.08872
1890.00000    0.07378
1890.50000    0.05998
1891.00000    0.04728
1891.50000    0.03562
1892.00000    0.02499
1892.50000    0.01536
1893.00000    0.00674
1893.50000   -0.00085
1894.00000   -0.00736
1894.50000   -0.01276
1895.00000   -0.01699
1895.50000   -0.02002
1896.00000   -0.02181
1896.50000   -0.02234
1897.00000   -0.02163
1897.50000   -0.01970
1898.00000   -0.01664
1898.50000   -0.01254
1899.00000   -0.00752
1899.50000   -0.00175
1900.00000    0.00460
1900.50000    0.01133
1901.00000    0.01827
1901.50000    0.02520
1902.00000    0.03194
1902.50000    0.03834
1903.00000    0.04425
1903.50000    0.04957
1904.00000    0.05420
1904.50000    0.05811
1905.00000    0.06128
1905.50000    0.06373
1906.00000    0.06548
1906.50000    0.06660
1907.00000    0.06715
1907.50000    0.06720
1908.00000    0.06679
1908.50000    0.06599
1909.00000    0.06482
1909.50000    0.06330
1910.00000    0.06143
1910.50000    0.05917
1911.00000    0.05648
1911.50000    0.05330
1912.00000    0.04957
1912.50000    0.04522
1913.00000    0.04018
1913.50000    0.03440
1914.00000    0.02783
1914.50000    0.02045
1915.00000    0.01226
1915.50000    0.00327
1916.00000   -0.00647
1916.50000   -0.01689
1917.00000   -0.02792
1917.50000   -0.03946
1918.00000   -0.05140
1918.50000   -0.06363
1919.00000   -0.07604
1919.50000   -0.08852
1920.00000   -0.10096
1920.50000   -0.11327
1921.00000   -0.12536
1921.50000   -0.13714
1922.00000   -0.14854
1922.50000   -0.15950
1923.00000   -0.16992
1923.50000   -0.17974
1924.00000   -0.18887
1924.50000   -0.19723
1925.00000   -0.20469
1925.50000   -0.21116
1926.00000   -0.21649
1926.50000   -0.22056
1927.00000   -0.22323
1927.50000   -0.22437
1928.00000   -0.22385
1928.50000   -0.22158
1929.00000   -0.21748
1929.50000   -0.21150
1930.00000   -0.20366
1930.50000   -0.19398
1931.00000   -0.18256
1931.50000   -0.16956
1932.00000   -0.15514
1932.50000   -0.13955
1933.00000   -0.12305
1933.50000   -0.10593
1934.00000   -0.08850
1934.50000   -0.07107
1935.00000   -0.05395
1935.50000   -0.03742
1936.00000   -0.02174
1936.50000   -0.00712
1937.00000    0.00627
1937.50000    0.01831
1938.00000    0.02894
1938.50000    0.03814
1939.00000    0.04597
1939.50000    0.05249
1940.00000    0.05784
1940.50000    0.06217
1941.00000    0.06563
1941.50000    0.06841
1942.00000    0.07068
1942.50000    0.07260
1943.00000    0.07430
1943.50000    0.07592
1944.00000    0.07752
1944.50000    0.07918
1945.00000    0.08092
1945.50000    0.08274
1946.00000    0.08463
1946.50000    0.08655
1947.00000    0.08846
1947.50000    0.09032
1948.00000    0.09208
1948.50000    0.09372
1949.00000    0.09521
1949.50000    0.09656
1950.00000    0.09776
1950.50000    0.09885
1951.00000    0.09985
1951.50000    0.10081
1952.00000    0.10174
1952.50000    0.10267
1953.00000    0.10361
1953.50000    0.10456
1954.00000    0.10546
1954.50000    0.10627
1955.00000    0.10687
1955.50000    0.10714
1956.00000    0.10692
1956.50000    0.10605
1957.00000    0.10432
1957.50000    0.10154
1958.00000    0.09751
1958.50000    0.09204
1959.00000    0.08498
1959.50000    0.07619
1960.00000    0.06560
1960.50000    0.05317
1961.00000    0.03893
1961.50000    0.02297
1962.00000    0.00546
1962.50000   -0.01338
1963.00000   -0.03327
1963.50000   -0.05385
1964.00000   -0.07474
1964.50000   -0.09548
1965.00000   -0.11562
1965.50000   -0.13468
1966.00000   -0.15216
1966.50000   -0.16760
1967.00000   -0.18054
1967.50000   -0.19059
1968.00000   -0.19737
1968.50000   -0.20062
1969.00000   -0.20010
1969.50000   -0.19569
1970.00000   -0.18735
1970.50000   -0.17511
1971.00000   -0.15913
1971.50000   -0.13963
1972.00000   -0.11692
1972.50000   -0.09141
1973.00000   -0.06356
1973.50000   -0.03391
1974.00000   -0.00302
1974.50000    0.02850
1975.00000    0.06003
1975.50000    0.09094
1976.00000    0.12063
1976.50000    0.14854
1977.00000    0.17414
1977.50000    0.19697
1978.00000    0.21665
1978.50000    0.23288
1979.00000    0.24545
1979.50000    0.25424
1980.00000    0.25925
1980.50000    0.26055
1981.00000    0.25832
1981.50000    0.25281
1982.00000    0.24435
1982.50000    0.23333
1983.00000    0.22018
1983.50000    0.20538
1984.00000    0.18943
1984.50000    0.17280
1985.00000    0.15598
1985.50000    0.13942
1986.00000    0.12353
1986.50000    0.10869
1987.00000    0.09518
1987.50000    0.08326
1988.00000    0.07310
1988.50000    0.06479
1989.00000    0.05838
1989.50000    0.05383
1990.00000    0.05105
1990.50000    0.04989
1991.00000    0.05017
1991.50000    0.05165
1992.00000    0.05409
1992.50000    0.05721
1993.00000    0.06073
1993.50000    0.06439
1994.00000    0.06793
1994.50000    0.07110
1995.00000    0.07371
1995.50000    0.07557
1996.00000    0.07655
1996.50000    0.07657
1997.00000    0.07557
1997.50000    0.07356
1998.00000    0.07057
1998.50000    0.06668
1999.00000    0.06200
1999.50000    0.05666
2000.00000    0.05084
2000.50000    0.04470
2001.00000    0.03843
2001.50000    0.03221
2002.00000    0.02620
2002.50000    0.02057
2003.00000    0.01545
2003.50000    0.01097
2004.00000    0.00720
2004.50000    0.00420
2005.00000    0.00200
2005.50000    0.00059
2006.00000   -0.00006
2006.50000   -0.00000
2007.00000    0.00067
2007.50000    0.00186
2008.00000    0.00344
2008.50000    0.00530
2009.00000    0.00730
2009.50000    0.00931
2010.00000    0.01118
2010.50000    0.01279
2011.00000    0.01402
2011.50000    0.01476
2012.00000    0.01492
2012.50000    0.01443
2013.00000    0.01321
2013.50000    0.01125
2014.00000    0.00852
2014.50000    0.00504
2015.00000    0.00084
2015.50000   -0.00402
2016.00000   -0.00943
2016.50000   -0.01530
2017.00000   -0.02148
2017.50000   -0.02781
2018.00000   -0.03411
2018.50000   -0.04021
2019.00000   -0.04591
2019.50000   -0.05101
2020.00000   -0.05533
2020.50000   -0.05871
2021.00000   -0.06099
2021.50000   -0.06207
2022.00000   -0.06187
2022.50000   -0.06036
2023.00000   -0.05755
2023.50000   -0.05351
2024.00000   -0.04835
2024.50000   -0.04222
2025.00000   -0.03535
2025.50000   -0.02796
2026.00000   -0.02033
2026.50000   -0.01274
2027.00000   -0.00549
2027.50000    0.00114
2028.00000    0.00687
2028.50000    0.01146
2029.00000    0.01472
2029.50000    0.01649
2030.00000    0.01669
2030.50000    0.01528
2031.00000    0.01229
2031.50000    0.00784
2032.00000    0.00208
2032.50000   -0.00476
2033.00000   -0.01242
2033.50000   -0.02061
2034.00000   -0.02899
2034.50000   -0.03724
2035.00000   -0.04501
2035.50000   -0.05201
2036.00000   -0.05795
2036.50000   -0.06259
2037.00000   -0.06574
2037.50000   -0.06728
2038.00000   -0.06714
2038.50000   -0.06532
2039.00000   -0.06188
2039.50000   -0.05695
2040.00000   -0.05071
2040.50000   -0.04338
2041.00000   -0.03522
2041.50000   -0.02651
2042.00000   -0.01754
2042.50000   -0.00863
2043.00000   -0.00005
2043.50000    0.00793
2044.00000    0.01506
2044.50000    0.02116
2045.00000    0.02605
2045.50000    0.02961
2046.00000    0.03177
2046.50000    0.03248
2047.00000    0.03175
2047.50000    0.02961
2048.00000    0.02611
2048.50000    0.02132
2049.00000    0.01533
2049.50000    0.00823
2050.00000    0.00011
2050.50000   -0.00894
2051.00000   -0.01885
2051.50000   -0.02952
2052.00000   -0.04090
2052.50000   -0.05291
2053.00000   -0.06549
2053.50000   -0.07855
2054.00000   -0.09200
2054.50000   -0.10575
2055.00000   -0.11966
2055.50000   -0.13357
2056.00000   -0.14729
2056.50000   -0.16062
2057.00000   -0.17332
2057.50000   -0.18510
2058.00000   -0.19570
2058.50000   -0.20482
2059.00000   -0.21217
2059.50000   -0.21747
2060.00000   -0.22047
2060.50000   -0.22093
2061.00000   -0.21868
2061.50000   -0.21361
2062.00000   -0.20564
2062.50000   -0.19478
2063.00000   -0.18112
2063.50000   -0.16480
2064.00000   -0.14604
2064.50000   -0.12513
2065.00000   -0.10240
2065.50000   -0.07824
2066.00000   -0.05307
2066.50000   -0.02735
2067.00000   -0.00152
2067.50000    0.02396
2068.00000    0.04866
2068.50000    0.07216
2069.00000    0.09412
2069.50000    0.11421
2070.00000    0.13218
2070.50000    0.14784
2071.00000    0.16106
2071.50000    0.17179
2072.00000    0.18004
2072.50000    0.18587
2073.00000    0.18940
2073.50000    0.19080
2074.00000    0.19028
2074.50000    0.18806
2075.00000    0.18440
2075.50000    0.17953
2076.00000    0.17370
2076.50000    0.16715
2077.00000    0.16009
2077.50000    0.15268
2078.00000    0.14508
2078.50000    0.13741
2079.00000    0.12975
2079.50000    0.12215
2080.00000    0.11464
2080.50000    0.10722
2081.00000    0.09989
2081.50000    0.09263
2082.00000    0.08546
2082.50000    0.07835
2083.00000    0.07135
2083.50000    0.06448
2084.00000    0.05781
2084.50000    0.05142
2085.00000    0.04541
2085.50000    0.03990
2086.00000    0.03502
2086.50000    0.03088
2087.00000    0.02760
2087.50000    0.02528
2088.00000    0.02396
2088.50000    0.02367
2089.00000    0.02441
2089.50000    0.02609
2090.00000    0.02860
2090.50000    0.03178
2091.00000    0.03541
2091.50000    0.03926
2092.00000    0.04307
2092.50000    0.04655
2093.00000    0.04943
2093.50000    0.05144
2094.00000    0.05235
2094.50000    0.05197
2095.00000    0.05016
2095.50000    0.04682
2096.00000    0.04195
2096.50000    0.03558
2097.00000    0.02783
2097.50000    0.01886
2098.00000    0.00887
2098.50000   -0.00187
2099.00000   -0.01309
2099.50000   -0.02449
2100.00000   -0.03580
2100.50000   -0.04672
2101.00000   -0.05701
2101.50000   -0.06644
2102.00000   -0.07484
2102.50000   -0.08208
2103.00000   -0.08805
2103.50000   -0.09273
2104.00000   -0.09612
2104.50000   -0.09824
2105.00000   -0.09919
2105.50000   -0.09905
2106.00000   -0.09793
2106.50000   -0.09597
2107.00000   -0.09329
2107.50000   -0.09003
2108.00000   -0.08629
2108.50000   -0.08220
2109.00000   -0.07787
2109.50000   -0.07339
2110.00000   -0.06884
2110.50000   -0.06430
2111.00000   -0.05983
2111.50000   -0.05550
2112.00000   -0.05134
2112.50000   -0.04739
2113.00000   -0.04369
2113.50000   -0.04024
2114.00000   -0.03704
2114.50000   -0.03407
2115.00000   -0.03130
2115.50000   -0.02868
2116.00000   -0.02612
2116.50000   -0.02355
2117.00000   -0.02085
2117.50000   -0.01791
2118.00000   -0.01461
2118.50000   -0.01083
2119.00000   -0.00646
2119.50000   -0.00141
2120.00000    0.00441
2120.50000    0.01103
2121.00000    0.01847
2121.50000    0.02671
2122.00000    0.03566
2122.50000    0.04524
2123.00000    0.05530
2123.50000    0.06565
2124.00000    0.07609
2124.50000    0.08640
2125.00000    0.09633
2125.50000    0.10565
2126.00000    0.11410
2126.50000    0.12148
2127.00000    0.12757
2127.50000    0.13219
2128.00000    0.13522
2128.50000    0.13653
2129.00000    0.13606
2129.50000    0.13379
2130.00000    0.12972
2130.50000    0.12389
2131.00000    0.11638
2131.50000    0.10730
2132.00000    0.09678
2132.50000    0.08497
2133.00000    0.07205
2133.50000    0.05820
2134.00000    0.04363
2134.50000    0.02853
2135.00000    0.01313
2135.50000   -0.00235
2136.00000   -0.01770
2136.50000   -0.03269
2137.00000   -0.04711
2137.50000   -0.06075
2138.00000   -0.07341
2138.50000   -0.08492
2139.00000   -0.09510
2139.50000   -0.10382
2140.00000   -0.11097
2140.50000   -0.11646
2141.00000   -0.12026
2141.50000   -0.12233
2142.00000   -0.12270
2142.50000   -0.12142
2143.00000   -0.11857
2143.50000   -0.11425
2144.00000   -0.10860
2144.50000   -0.10174
2145.00000   -0.09385
2145.50000   -0.08507
2146.00000   -0.07558
2146.50000   -0.06552
2147.00000   -0.05505
2147.50000   -0.04431
2148.00000   -0.03345
2148.50000   -0.02259
2149.00000   -0.01186
2149.50000   -0.00136
2150.00000    0.00879
2150.50000    0.01846
2151.00000    0.02756
2151.50000    0.03595
2152.00000    0.04354
2152.50000    0.05019
2153.00000    0.05578
2153.50000    0.06021
2154.00000    0.06337
2154.50000    0.06517
2155.00000    0.06553
2155.50000    0.06441
2156.00000    0.06178
2156.50000    0.05766
2157.00000    0.05208
2157.50000    0.04514
2158.00000    0.03694
2158.50000    0.02763
2159.00000    0.01738
2159.50000    0.00641
2160.00000   -0.00509
2160.50000   -0.01687
2161.00000   -0.02871
2161.50000   -0.04039
2162.00000   -0.05170
2162.50000   -0.06244
2163.00000   -0.07244
2163.50000   -0.08156
2164.00000   -0.08968
2164.50000   -0.09672
2165.00000   -0.10262
2165.50000   -0.10735
2166.00000   -0.11090
2166.50000   -0.11329
2167.00000   -0.11454
2167.50000   -0.11469
2168.00000   -0.11379
2168.50000   -0.11187
2169.00000   -0.10899
2169.50000   -0.10519
2170.00000   -0.10051
2170.50000   -0.09498
2171.00000   -0.08864
2171.50000   -0.08151
2172.00000   -0.07363
2172.50000   -0.06502
2173.00000   -0.05571
2173.50000   -0.04576
2174.00000   -0.03519
2174.50000   -0.02408
2175.00000   -0.01249
2175.50000   -0.00051
2176.00000    0.01177
2176.50000    0.02424
2177.00000    0.03679
2177.50000    0.04928
2178.00000    0.06157
2178.50000    0.07353
2179.00000    0.08500
2179.50000    0.09583
2180.00000    0.10587
2180.50000    0.11497
2181.00000    0.12300
2181.50000    0.12982
2182.00000    0.13532
2182.50000    0.13940
2183.00000    0.14198
2183.50000    0.14299
2184.00000    0.14240
2184.50000    0.14021
2185.00000    0.13645
2185.50000    0.13116
2186.00000    0.12445
2186.50000    0.11642
2187.00000    0.10724
2187.50000    0.09709
2188.00000    0.08618
2188.50000    0.07475
2189.00000    0.06304
2189.50000    0.05131
2190.00000    0.03983
2190.50000    0.02885
2191.00000    0.01861
2191.50000    0.00933
2192.00000    0.00121
2192.50000   -0.00562
2193.00000   -0.01106
2193.50000   -0.01505
2194.00000   -0.01761
2194.50000   -0.01880
2195.00000   -0.01873
2195.50000   -0.01759
2196.00000   -0.01559
2196.50000   -0.01299
2197.00000   -0.01008
2197.50000   -0.00714
2198.00000   -0.00449
2198.50000   -0.00241
2199.00000   -0.00117
2199.50000   -0.00099
2200.00000   -0.00205
2200.50000   -0.00445
2201.00000   -0.00825
2201.50000   -0.01340
2202.00000   -0.01980
2202.50000   -0.02729
2203.00000   -0.03560
2203.50000   -0.04445
2204.00000   -0.05347
2204.50000   -0.06230
2205.00000   -0.07053
2205.50000   -0.07776
2206.00000   -0.08361
2206.50000   -0.08773
2207.00000   -0.08980
2207.50000   -0.08959
2208.00000   -0.08690
2208.50000   -0.08164
2209.00000   -0.07377
2209.50000   -0.06334
2210.00000   -0.05048
2210.50000   -0.03536
2211.00000   -0.01824
2211.50000    0.00057
2212.00000    0.02075
2212.50000    0.04194
2213.00000    0.06376
2213.50000    0.08583
2214.00000    0.10779
2214.50000    0.12930
2215.00000    0.15004
2215.50000    0.16972
2216.00000    0.18808
2216.50000    0.20492
2217.00000    0.22006
2217.50000    0.23335
2218.00000    0.24467
2218.50000    0.25395
2219.00000    0.26112
2219.50000    0.26614
2220.00000    0.26898
2220.50000    0.26964
2221.00000    0.26810
2221.50000    0.26438
2222.00000    0.25849
2222.50000    0.25045
2223.00000    0.24029
2223.50000    0.22807
2224.00000    0.21384
2224.50000    0.19767
2225.00000    0.17968
2225.50000    0.15998
2226.00000    0.13873
2226.50000    0.11610
2227.00000    0.09231
2227.50000    0.06760
2228.00000    0.04224
2228.50000    0.01652
2229.00000   -0.00921
2229.50000   -0.03463
2230.00000   -0.05936
2230.50000   -0.08302
2231.00000   -0.10526
2231.50000   -0.12568
2232.00000   -0.14395
2232.50000   -0.15973
2233.00000   -0.17274
2233.50000   -0.18273
2234.00000   -0.18951
2234.50000   -0.19294
2235.00000   -0.19298
2235.50000   -0.18962
2236.00000   -0.18296
2236.50000   -0.17316
2237.00000   -0.16046
2237.50000   -0.14517
2238.00000   -0.12763
2238.50000   -0.10828
2239.00000   -0.08755
2239.50000   -0.06593
2240.00000   -0.04389
2240.50000   -0.02191
2241.00000   -0.00045
2241.50000    0.02007
2242.00000    0.03928
2242.50000    0.05685
2243.00000    0.07254
2243.50000    0.08616
2244.00000    0.09758
2244.50000    0.10677
2245.00000    0.11373
2245.50000    0.11853
2246.00000    0.12128
2246.50000    0.12212
2247.00000    0.12122
2247.50000    0.11874
2248.00000    0.11485
2248.50000    0.10971
2249.00000    0.10346
2249.50000    0.09621
2250.00000    0.08803
2250.50000    0.07900
2251.00000    0.06913
2251.50000    0.05846
2252.00000    0.04700
2252.50000    0.03475
2253.00000    0.02174
2253.50000    0.00802
2254.00000   -0.00635
2254.50000   -0.02124
2255.00000   -0.03652
2255.50000   -0.05200
2256.00000   -0.06745
2256.50000   -0.08262
2257.00000   -0.09722
2257.50000   -0.11096
2258.00000   -0.12354
2258.50000   -0.13467
2259.00000   -0.14410
2259.50000   -0.15159
2260.00000   -0.15697
2260.50000   -0.16012
2261.00000   -0.16098
2261.50000   -0.15954
2262.00000   -0.15589
2262.50000   -0.15013
2263.00000   -0.14244
2263.50000   -0.13303
2264.00000   -0.12216
2264.50000   -0.11006
2265.00000   -0.09702
2265.50000   -0.08329
2266.00000   -0.06909
2266.50000   -0.05466
2267.00000   -0.04017
2267.50000   -0.02578
2268.00000   -0.01160
2268.50000    0.00227
2269.00000    0.01576
2269.50000    0.02883
2270.00000    0.04144
2270.50000    0.05354
2271.00000    0.06509
2271.50000    0.07604
2272.00000    0.08633
2272.50000    0.09589
2273.00000    0.10460
2273.50000    0.11238
2274.00000    0.11912
2274.50000    0.12470
2275.00000    0.12904
2275.50000    0.13204
2276.00000    0.13366
2276.50000    0.13384
2277.00000    0.13261
2277.50000    0.13000
2278.00000    0.12607
2278.50000    0.12094
2279.00000    0.11473
2279.50000    0.10761
2280.00000    0.09974
2280.50000    0.09131
2281.00000    0.08249
2281.50000    0.07344
2282.00000    0.06432
2282.50000    0.05524
2283.00000    0.04631
2283.50000    0.03760
2284.00000    0.02915
2284.50000    0.02098
2285.00000    0.01308
2285.50000    0.00543
2286.00000   -0.00201
2286.50000   -0.00927
2287.00000   -0.01639
2287.50000   -0.02338
2288.00000   -0.03028
2288.50000   -0.03706
2289.00000   -0.04371
2289.50000   -0.05019
2290.00000   -0.05644
2290.50000   -0.06238
2291.00000   -0.06793
2291.50000   -0.07299
2292.00000   -0.07746
2292.50000   -0.08125
2293.00000   -0.08428
2293.50000   -0.08647
2294.00000   -0.08777
2294.50000   -0.08813
2295.00000   -0.08755
2295.50000   -0.08601
2296.00000   -0.08356
2296.50000   -0.08022
2297.00000   -0.07606
2297.50000   -0.07115
2298.00000   -0.06558
2298.50000   -0.05944
2299.00000   -0.05282
2299.50000   -0.04581
2300.00000   -0.03850
2300.50000   -0.03098
2301.00000   -0.02331
2301.50000   -0.01557
2302.00000   -0.00781
2302.50000   -0.00008
2303.00000    0.00760
2303.50000    0.01518
2304.00000    0.02265
2304.50000    0.02999
2305.00000    0.03716
2305.50000    0.04416
2306.00000    0.05096
2306.50000    0.05753
2307.00000    0.06382
2307.50000    0.06980
2308.00000    0.07542
2308.50000    0.08060
2309.00000    0.08529
2309.50000    0.08943
2310.00000    0.09293
2310.50000    0.09573
2311.00000    0.09777
2311.50000    0.09899
2312.00000    0.09935
2312.50000    0.09882
2313.00000    0.09737
2313.50000    0.09502
2314.00000    0.09177
2314.50000    0.08767
2315.00000    0.08277
2315.50000    0.07715
2316.00000    0.07090
2316.50000    0.06412
2317.00000    0.05693
2317.50000    0.04946
2318.00000    0.04183
2318.50000    0.03418
2319.00000    0.02667
2319.50000    0.01941
2320.00000    0.01255
2320.50000    0.00622
2321.00000    0.00053
2321.50000   -0.00442
2322.00000   -0.00853
2322.50000   -0.01174
2323.00000   -0.01402
2323.50000   -0.01533
2324.00000   -0.01569
2324.50000   -0.01516
2325.00000   -0.01381
2325.50000   -0.01175
2326.00000   -0.00913
2326.50000   -0.00613
2327.00000   -0.00294
2327.50000    0.00020
2328.00000    0.00308
2328.50000    0.00545
2329.00000    0.00710
2329.50000    0.00781
2330.00000    0.00741
2330.50000    0.00576
2331.00000    0.00276
2331.50000   -0.00160
2332.00000   -0.00732
2332.50000   -0.01429
2333.00000   -0.02239
2333.50000   -0.03142
2334.00000   -0.04113
2334.50000   -0.05124
2335.00000   -0.06147
2335.50000   -0.07149
2336.00000   -0.08101
2336.50000   -0.08976
2337.00000   -0.09748
2337.50000   -0.10398
2338.00000   -0.10910
2338.50000   -0.11277
2339.00000   -0.11496
2339.50000   -0.11568
2340.00000   -0.11503
2340.50000   -0.11313
2341.00000   -0.11014
2341.50000   -0.10622
2342.00000   -0.10157
2342.50000   -0.09636
2343.00000   -0.09074
2343.50000   -0.08485
2344.00000   -0.07879
2344.50000   -0.07259
2345.00000   -0.06629
2345.50000   -0.05984
2346.00000   -0.05320
2346.50000   -0.04629
2347.00000   -0.03901
2347.50000   -0.03126
2348.00000   -0.02296
2348.50000   -0.01405
2349.00000   -0.00450
2349.50000    0.00569
2350.00000    0.01645
2350.50000    0.02768
2351.00000    0.03923
2351.50000    0.05088
2352.00000    0.06239
2352.50000    0.07350
2353.00000    0.08391
2353.50000    0.09332
2354.00000    0.10144
2354.50000    0.10800
2355.00000    0.11277
2355.50000    0.11554
2356.00000    0.11618
2356.50000    0.11463
2357.00000    0.11086
2357.50000    0.10496
2358.00000    0.09704
2358.50000    0.08730
2359.00000    0.07602
2359.50000    0.06350
2360.00000    0.05009
2360.50000    0.03619
2361.00000    0.02219
2361.50000    0.00850
2362.00000   -0.00448
2362.50000   -0.01638
2363.00000   -0.02684
2363.50000   -0.03558
2364.00000   -0.04234
2364.50000   -0.04694
2365.00000   -0.04926
2365.50000   -0.04926
2366.00000   -0.04695
2366.50000   -0.04242
2367.00000   -0.03582
2367.50000   -0.02736
2368.00000   -0.01731
2368.50000   -0.00596
2369.00000    0.00635
2369.50000    0.01927
2370.00000    0.03245
2370.50000    0.04552
2371.00000    0.05813
2371.50000    0.06999
2372.00000    0.08078
2372.50000    0.09028
2373.00000    0.09827
2373.50000    0.10460
2374.00000    0.10917
2374.50000    0.11192
2375.00000    0.11286
2375.50000    0.11201
2376.00000    0.10946
2376.50000    0.10531
2377.00000    0.09972
2377.50000    0.09284
2378.00000    0.08485
2378.50000    0.07593
2379.00000    0.06625
2379.50000    0.05600
2380.00000    0.04534
2380.50000    0.03444
2381.00000    0.02342
2381.50000    0.01240
2382.00000    0.00150
2382.50000   -0.00921
2383.00000   -0.01965
2383.50000   -0.02977
2384.00000   -0.03951
2384.50000   -0.04885
2385.00000   -0.05772
2385.50000   -0.06611
2386.00000   -0.07396
2386.50000   -0.08122
2387.00000   -0.08783
2387.50000   -0.09372
2388.00000   -0.09881
2388.50000   -0.10301
2389.00000   -0.10622
2389.50000   -0.10834
2390.00000   -0.10927
2390.50000   -0.10892
2391.00000   -0.10722
2391.50000   -0.10410
2392.00000   -0.09954
2392.50000   -0.09354
2393.00000   -0.08615
2393.50000   -0.07746
2394.00000   -0.06761
2394.50000   -0.05677
2395.00000   -0.04519
2395.50000   -0.03313
2396.00000   -0.02090
2396.50000   -0.00883
2397.00000    0.00274
2397.50000    0.01346
2398.00000    0.02299
2398.50000    0.03103
2399.00000    0.03729
2399.50000    0.04156
2400.00000    0.04369
2400.50000    0.04358
2401.00000    0.04122
2401.50000    0.03667
2402.00000    0.03008
2402.50000    0.02166
2403.00000    0.01169
2403.50000    0.00051
2404.00000   -0.01150
2404.50000   -0.02392
2405.00000   -0.03634
2405.50000   -0.04832
2406.00000   -0.05944
2406.50000   -0.06930
2407.00000   -0.07753
2407.50000   -0.08382
2408.00000   -0.08790
2408.50000   -0.08953
2409.00000   -0.08856
2409.50000   -0.08487
2410.00000   -0.07841
2410.50000   -0.06918
2411.00000   -0.05721
2411.50000   -0.04262
2412.00000   -0.02554
2412.50000   -0.00616
2413.00000    0.01529
2413.50000    0.03853
2414.00000    0.06325
2414.50000    0.08911
2415.00000    0.11571
2415.50000    0.14264
2416.00000    0.16945
2416.50000    0.19569
2417.00000    0.22087
2417.50000    0.24453
2418.00000    0.26621
2418.50000    0.28547
2419.00000    0.30191
2419.50000    0.31520
2420.00000    0.32506
2420.50000    0.33130
2421.00000    0.33379
2421.50000    0.33252
2422.00000    0.32755
2422.50000    0.31905
2423.00000    0.30727
2423.50000    0.29251
2424.00000    0.27517
2424.50000    0.25567
2425.00000    0.23447
2425.50000    0.21204
2426.00000    0.18883
2426.50000    0.16528
2427.00000    0.14178
2427.50000    0.11869
2428.00000    0.09627
2428.50000    0.07475
2429.00000    0.05427
2429.50000    0.03491
2430.00000    0.01670
2430.50000   -0.00040
2431.00000   -0.01645
2431.50000   -0.03155
2432.00000   -0.04581
2432.50000   -0.05934
2433.00000   -0.07223
2433.50000   -0.08459
2434.00000   -0.09645
2434.50000   -0.10785
2435.00000   -0.11878
2435.50000   -0.12919
2436.00000   -0.13901
2436.50000   -0.14813
2437.00000   -0.15645
2437.50000   -0.16382
2438.00000   -0.17011
2438.50000   -0.17519
2439.00000   -0.17894
2439.50000   -0.18127
2440.00000   -0.18210
2440.50000   -0.18138
2441.00000   -0.17910
2441.50000   -0.17527
2442.00000   -0.16994
2442.50000   -0.16320
2443.00000   -0.15512
2443.50000   -0.14584
2444.00000   -0.13549
2444.50000   -0.12420
2445.00000   -0.11212
2445.50000   -0.09939
2446.00000   -0.08615
2446.50000   -0.07253
2447.00000   -0.05866
2447.50000   -0.04463
2448.00000   -0.03057
2448.50000   -0.01655
2449.00000   -0.00269
2449.50000    0.01094
2450.00000    0.02423
2450.50000    0.03709
2451.00000    0.04942
2451.50000    0.06109
2452.00000    0.07200
2452.50000    0.08201
2453.00000    0.09100
2453.50000    0.09884
2454.00000    0.10541
2454.50000    0.11061
2455.00000    0.11437
2455.50000    0.11662
2456.00000    0.11736
2456.50000    0.11661
2457.00000    0.11444
2457.50000    0.11096
2458.00000    0.10634
2458.50000    0.10076
2459.00000    0.09446
2459.50000    0.08770
2460.00000    0.08075
2460.50000    0.07386
2461.00000    0.06732
2461.50000    0.06134
2462.00000    0.05612
2462.50000    0.05183
2463.00000    0.04857
2463.50000    0.04637
2464.00000    0.04521
2464.50000    0.04503
2465.00000    0.04569
2465.50000    0.04702
2466.00000    0.04880
2466.50000    0.05080
2467.00000    0.05278
2467.50000    0.05450
2468.00000    0.05572
2468.50000    0.05626
2469.00000    0.05594
2469.50000    0.05466
2470.00000    0.05234
2470.50000    0.04899
2471.00000    0.04463
2471.50000    0.03937
2472.00000    0.03333
2472.50000    0.02668
2473.00000    0.01962
2473.50000    0.01238
2474.00000    0.00517
2474.50000   -0.00178
2475.00000   -0.00825
2475.50000   -0.01405
2476.00000   -0.01899
2476.50000   -0.02294
2477.00000   -0.02577
2477.50000   -0.02741
2478.00000   -0.02782
2478.50000   -0.02698
2479.00000   -0.02491
2479.50000   -0.02167
2480.00000   -0.01733
2480.50000   -0.01200
2481.00000   -0.00578
2481.50000    0.00118
2482.00000    0.00877
2482.50000    0.01683
2483.00000    0.02523
2483.50000    0.03384
2484.00000    0.04253
2484.50000    0.05118
2485.00000    0.05970
2485.50000    0.06799
2486.00000    0.07599
2486.50000    0.08363
2487.00000    0.09086
2487.50000    0.09766
2488.00000    0.10399
2488.50000    0.10985
2489.00000    0.11523
2489.50000    0.12013
2490.00000    0.12454
2490.50000    0.12849
2491.00000    0.13197
2491.50000    0.13499
2492.00000    0.13757
2492.50000    0.13972
2493.00000    0.14143
2493.50000    0.14273
2494.00000    0.14361
2494.50000    0.14409
2495.00000    0.14416
2495.50000    0.14382
2496.00000    0.14307
2496.50000    0.14190
2497.00000    0.14030
2497.50000    0.13825
2498.00000    0.13572
2498.50000    0.13268
2499.00000    0.12911
2499.50000    0.12497
2500.00000    0.12022
2500.50000    0.11482
2501.00000    0.10874
2501.50000    0.10194
2502.00000    0.09441
2502.50000    0.08612
2503.00000    0.07708
2503.50000    0.06729
2504.00000    0.05676
2504.50000    0.04553
2505.00000    0.03363
2505.50000    0.02111
2506.00000    0.00805
2506.50000   -0.00550
2507.00000   -0.01945
2507.50000   -0.03372
2508.00000   -0.04821
2508.50000   -0.06284
2509.00000   -0.07749
2509.50000   -0.09207
2510.00000   -0.10645
2510.50000   -0.12052
2511.00000   -0.13417
2511.50000   -0.14727
2512.00000   -0.15970
2512.50000   -0.17134
2513.00000   -0.18208
2513.50000   -0.19182
2514.00000   -0.20046
2514.50000   -0.20794
2515.00000   -0.21419
2515.50000   -0.21920
2516.00000   -0.22295
2516.50000   -0.22546
2517.00000   -0.22678
2517.50000   -0.22697
2518.00000   -0.22610
2518.50000   -0.22428
2519.00000   -0.22159
2519.50000   -0.21813
2520.00000   -0.21398
2520.50000   -0.20922
2521.00000   -0.20389
2521.50000   -0.19802
2522.00000   -0.19163
2522.50000   -0.18470
2523.00000   -0.17718
2523.50000   -0.16905
2524.00000   -0.16024
2524.50000   -0.15070
2525.00000   -0.14041
2525.50000   -0.12934
2526.00000   -0.11749
2526.50000   -0.10491
2527.00000   -0.09167
2527.50000   -0.07788
2528.00000   -0.06369
2528.50000   -0.04924
2529.00000   -0.03475
2529.50000   -0.02040
2530.00000   -0.00639
2530.50000    0.00707
2531.00000    0.01983
2531.50000    0.03174
2532.00000    0.04268
2532.50000    0.05260
2533.00000    0.06145
2533.50000    0.06927
2534.00000    0.07609
2534.50000    0.08200
2535.00000    0.08710
2535.50000    0.09152
2536.00000    0.09539
2536.50000    0.09883
2537.00000    0.10197
2537.50000    0.10490
2538.00000    0.10772
2538.50000    0.11048
2539.00000    0.11321
2539.50000    0.11594
2540.00000    0.11864
2540.50000    0.12129
2541.00000    0.12383
2541.50000    0.12619
2542.00000    0.12830
2542.50000    0.13006
2543.00000    0.13138
2543.50000    0.13214
2544.00000    0.13223
2544.50000    0.13155
2545.00000    0.12997
2545.50000    0.12738
2546.00000    0.12365
2546.50000    0.11870
2547.00000    0.11243
2547.50000    0.10477
2548.00000    0.09567
2548.50000    0.08512
2549.00000    0.07315
2549.50000    0.05984
2550.00000    0.04530
2550.50000    0.02970
2551.00000    0.01326
2551.50000   -0.00375
2552.00000   -0.02106
2552.50000   -0.03831
2553.00000   -0.05517
2553.50000   -0.07130
2554.00000   -0.08633
2554.50000   -0.09997
2555.00000   -0.11190
2555.50000   -0.12190
2556.00000   -0.12978
2556.50000   -0.13540
2557.00000   -0.13871
2557.50000   -0.13970
2558.00000   -0.13844
2558.50000   -0.13505
2559.00000   -0.12969
2559.50000   -0.12258
2560.00000   -0.11396
2560.50000   -0.10409
2561.00000   -0.09324
2561.50000   -0.08169
2562.00000   -0.06970
2562.50000   -0.05752
2563.00000   -0.04538
2563.50000   -0.03348
2564.00000   -0.02202
2564.50000   -0.01113
2565.00000   -0.00093
2565.50000    0.00847
2566.00000    0.01701
2566.50000    0.02466
2567.00000    0.03140
2567.50000    0.03723
2568.00000    0.04218
2568.50000    0.04631
2569.00000    0.04966
2569.50000    0.05232
2570.00000    0.05436
2570.50000    0.05588
2571.00000    0.05697
2571.50000    0.05772
2572.00000    0.05819
2572.50000    0.05846
2573.00000    0.05857
2573.50000    0.05855
2574.00000    0.05840
2574.50000    0.05810
2575.00000    0.05761
2575.50000    0.05686
2576.00000    0.05576
2576.50000    0.05422
2577.00000    0.05213
2577.50000    0.04940
2578.00000    0.04593
2578.50000    0.04165
2579.00000    0.03653
2579.50000    0.03055
2580.00000    0.02375
2580.50000    0.01618
2581.00000    0.00798
2581.50000   -0.00072
2582.00000   -0.00971
2582.50000   -0.01877
2583.00000   -0.02767
2583.50000   -0.03615
2584.00000   -0.04396
2584.50000   -0.05087
2585.00000   -0.05667
2585.50000   -0.06118
2586.00000   -0.06427
2586.50000   -0.06587
2587.00000   -0.06595
2587.50000   -0.06454
2588.00000   -0.06173
2588.50000   -0.05765
2589.00000   -0.05248
2589.50000   -0.04642
2590.00000   -0.03969
2590.50000   -0.03253
2591.00000   -0.02515
2591.50000   -0.01776
2592.00000   -0.01054
2592.50000   -0.00364
2593.00000    0.00283
2593.50000    0.00882
2594.00000    0.01429
2594.50000    0.01927
2595.00000    0.02377
2595.50000    0.02788
2596.00000    0.03165
2596.50000    0.03517
2597.00000    0.03848
2597.50000    0.04164
2598.00000    0.04466
2598.50000    0.04753
2599.00000    0.05022
2599.50000    0.05265
2600.00000    0.05472
2600.50000    0.05633
2601.00000    0.05736
2601.50000    0.05769
2602.00000    0.05720
2602.50000    0.05583
2603.00000    0.05351
2603.50000    0.05023
2604.00000    0.04601
2604.50000    0.04095
2605.00000    0.03513
2605.50000    0.02873
2606.00000    0.02191
2606.50000    0.01489
2607.00000    0.00787
2607.50000    0.00106
2608.00000   -0.00533
2608.50000   -0.01114
2609.00000   -0.01623
2609.50000   -0.02048
2610.00000   -0.02383
2610.50000   -0.02628
2611.00000   -0.02785
2611.50000   -0.02860
2612.00000   -0.02864
2612.50000   -0.02809
2613.00000   -0.02711
2613.50000   -0.02587
2614.00000   -0.02452
2614.50000   -0.02323
2615.00000   -0.02215
2615.50000   -0.02144
2616.00000   -0.02119
2616.50000   -0.02152
2617.00000   -0.02250
2617.50000   -0.02417
2618.00000   -0.02654
2618.50000   -0.02962
2619.00000   -0.03336
2619.50000   -0.03772
2620.00000   -0.04261
2620.50000   -0.04792
2621.00000   -0.05354
2621.50000   -0.05933
2622.00000   -0.06512
2622.50000   -0.07076
2623.00000   -0.07607
2623.50000   -0.08087
2624.00000   -0.08499
2624.50000   -0.08827
2625.00000   -0.09054
2625.50000   -0.09167
2626.00000   -0.09155
2626.50000   -0.09008
2627.00000   -0.08720
2627.50000   -0.08288
2628.00000   -0.07710
2628.50000   -0.06988
2629.00000   -0.06127
2629.50000   -0.05132
2630.00000   -0.04013
2630.50000   -0.02776
2631.00000   -0.01432
2631.50000    0.00010
2632.00000    0.01541
2632.50000    0.03154
2633.00000    0.04840
2633.50000    0.06594
2634.00000    0.08410
2634.50000    0.10283
2635.00000    0.12210
2635.50000    0.14185
2636.00000    0.16207
2636.50000    0.18269
2637.00000    0.20367
2637.50000    0.22496
2638.00000    0.24649
2638.50000    0.26820
2639.00000    0.29002
2639.50000    0.31188
2640.00000    0.33371
2640.50000    0.35547
2641.00000    0.37712
2641.50000    0.39866
2642.00000    0.42012
2642.50000    0.44156
2643.00000    0.46309
2643.50000    0.48486
2644.00000    0.50708
2644.50000    0.53000
2645.00000    0.55393
2645.50000    0.57921
2646.00000    0.60625
2646.50000    0.63546
2647.00000    0.66729
2647.50000    0.70221
2648.00000    0.74071
2648.50000    0.78325
2649.00000    0.83029
2649.50000    0.88226
2650.00000    0.93958
2650.50000    1.00260
2651.00000    1.07163
2651.50000    1.14694
2652.00000    1.22874
2652.50000    1.31718
2653.00000    1.41235
2653.50000    1.51433
2654.00000    1.62311
2654.50000    1.73868
2655.00000    1.86099
2655.50000    1.98997
2656.00000    2.12554
2656.50000    2.26763
2657.00000    2.41616
2657.50000    2.57106
2658.00000    2.73228
2658.50000    2.89977
2659.00000    3.07350
2659.50000    3.25342
2660.00000    3.43949
2660.50000    3.63165
2661.00000    3.82983
2661.50000    4.03389
2662.00000    4.24367
2662.50000    4.45895
2663.00000    4.67944
2663.50000    4.90478
2664.00000    5.13452
2664.50000    5.36813
2665.00000    5.60503
2665.50000    5.84451
2666.00000    6.08583
2666.50000    6.32813
2667.00000    6.57054
2667.50000    6.81209
2668.00000    7.05180
2668.50000    7.28864
2669.00000    7.52156
2669.50000    7.74951
2670.00000    7.97142
2670.50000    8.18624
2671.00000    8.39295
2671.50000    8.59056
2672.00000    8.77811
2672.50000    8.95471
2673.00000    9.11952
2673.50000    9.27177
2674.00000    9.41078
2674.50000    9.53596
2675.00000    9.64680
2675.50000    9.74289
2676.00000    9.82394
2676.50000    9.88973
2677.00000    9.94019
2677.50000    9.97530
2678.00000    9.99518
2678.50000   10.00000
2679.00000    9.99004
2679.50000    9.96562
2680.00000    9.92714
2680.50000    9.87503
2681.00000    9.80976
2681.50000    9.73183
2682.00000    9.64173
2682.50000    9.54000
2683.00000    9.42714
2683.50000    9.30368
2684.00000    9.17013
2684.50000    9.02701
2685.00000    8.87483
2685.50000    8.71412
2686.00000    8.54542
2686.50000    8.36929
2687.00000    8.18631
2687.50000    7.99709
2688.00000    7.80227
2688.50000    7.60253
2689.00000    7.39858
2689.50000    7.19116
2690.00000    6.98104
2690.50000    6.76900
2691.00000    6.55583
2691.50000    6.34230
2692.00000    6.12919
2692.50000    5.91723
2693.00000    5.70711
2693.50000    5.49946
2694.00000    5.29487
2694.50000    5.09382
2695.00000    4.89675
2695.50000    4.70398
2696.00000    4.51579
2696.50000    4.33235
2697.00000    4.15379
2697.50000    3.98016
2698.00000    3.81147
2698.50000    3.64767
2699.00000    3.48871
2699.50000    3.33451
2700.00000    3.18498
2700.50000    3.04004
2701.00000    2.89963
2701.50000    2.76368
2702.00000    2.63216
2702.50000    2.50505
2703.00000    2.38236
2703.50000    2.26410
2704.00000    2.15029
2704.50000    2.04096
2705.00000    1.93613
2705.50000    1.83583
2706.00000    1.74006
2706.50000    1.64879
2707.00000    1.56201
2707.50000    1.47965
2708.00000    1.40163
2708.50000    1.32784
2709.00000    1.25817
2709.50000    1.19247
2710.00000    1.13058
2710.50000    1.07232
2711.00000    1.01751
2711.50000    0.96593
2712.00000    0.91738
2712.50000    0.87164
2713.00000    0.82848
2713.50000    0.78767
2714.00000    0.74898
2714.50000    0.71217
2715.00000    0.67702
2715.50000    0.64329
2716.00000    0.61079
2716.50000    0.57932
2717.00000    0.54871
2717.50000    0.51882
2718.00000    0.48955
2718.50000    0.46083
2719.00000    0.43265
2719.50000    0.40502
2720.00000    0.37801
2720.50000    0.35173
2721.00000    0.32634
2721.50000    0.30201
2722.00000    0.27893
2722.50000    0.25733
2723.00000    0.23743
2723.50000    0.21941
2724.00000    0.20348
2724.50000    0.18977
2725.00000    0.17840
2725.50000    0.16943
2726.00000    0.16286
2726.50000    0.15863
2727.00000    0.15662
2727.50000    0.15665
2728.00000    0.15850
2728.50000    0.16186
2729.00000    0.16641
2729.50000    0.17179
2730.00000    0.17761
2730.50000    0.18346
2731.00000    0.18895
2731.50000    0.19368
2732.00000    0.19728
2732.50000    0.19941
2733.00000    0.19977
2733.50000    0.19811
2734.00000    0.19423
2734.50000    0.18801
2735.00000    0.17936
2735.50000    0.16829
2736.00000    0.15485
2736.50000    0.13916
2737.00000    0.12138
2737.50000    0.10173
2738.00000    0.08047
2738.50000    0.05788
2739.00000    0.03425
2739.50000    0.00989
2740.00000   -0.01489
2740.50000   -0.03980
2741.00000   -0.06456
2741.50000   -0.08893
2742.00000   -0.11266
2742.50000   -0.13556
2743.00000   -0.15744
2743.50000   -0.17815
2744.00000   -0.19755
2744.50000   -0.21549
2745.00000   -0.23187
2745.50000   -0.24654
2746.00000   -0.25940
2746.50000   -0.27030
2747.00000   -0.27913
2747.50000   -0.28574
2748.00000   -0.29003
2748.50000   -0.29188
2749.00000   -0.29120
2749.50000   -0.28794
2750.00000   -0.28210
2750.50000   -0.27369
2751.00000   -0.26283
2751.50000   -0.24966
2752.00000   -0.23440
2752.50000   -0.21734
2753.00000   -0.19880
2753.50000   -0.17917
2754.00000   -0.15885
2754.50000   -0.13829
2755.00000   -0.11792
2755.50000   -0.09816
2756.00000   -0.07941
2756.50000   -0.06200
2757.00000   -0.04624
2757.50000   -0.03233
2758.00000   -0.02042
2758.50000   -0.01057
2759.00000   -0.00277
2759.50000    0.00306
2760.00000    0.00707
2760.50000    0.00947
2761.00000    0.01050
2761.50000    0.01043
2762.00000    0.00952
2762.50000    0.00805
2763.00000    0.00627
2763.50000    0.00442
2764.00000    0.00267
2764.50000    0.00118
2765.00000    0.00004
2765.50000   -0.00067
2766.00000   -0.00097
2766.50000   -0.00086
2767.00000   -0.00041
2767.50000    0.00031
2768.00000    0.00119
2768.50000    0.00214
2769.00000    0.00306
2769.50000    0.00386
2770.00000    0.00447
2770.50000    0.00484
2771.00000    0.00495
2771.50000    0.00482
2772.00000    0.00447
2772.50000    0.00397
2773.00000    0.00340
2773.50000    0.00286
2774.00000    0.00245
2774.50000    0.00230
2775.00000    0.00252
2775.50000    0.00319
2776.00000    0.00441
2776.50000    0.00625
2777.00000    0.00873
2777.50000    0.01189
2778.00000    0.01571
2778.50000    0.02016
2779.00000    0.02518
2779.50000    0.03070
2780.00000    0.03664
2780.50000    0.04290
2781.00000    0.04940
2781.50000    0.05604
2782.00000    0.06274
2782.50000    0.06943
2783.00000    0.07604
2783.50000    0.08253
2784.00000    0.08887
2784.50000    0.09504
2785.00000    0.10100
2785.50000    0.10676
2786.00000    0.11228
2786.50000    0.11756
2787.00000    0.12257
2787.50000    0.12726
2788.00000    0.13158
2788.50000    0.13546
2789.00000    0.13881
2789.50000    0.14154
2790.00000    0.14354
2790.50000    0.14468
2791.00000    0.14485
2791.50000    0.14392
2792.00000    0.14179
2792.50000    0.13835
2793.00000    0.13352
2793.50000    0.12724
2794.00000    0.11945
2794.50000    0.11017
2795.00000    0.09940
2795.50000    0.08721
2796.00000    0.07367
2796.50000    0.05892
2797.00000    0.04309
2797.50000    0.02638
2798.00000    0.00900
2798.50000   -0.00883
2799.00000   -0.02683
2799.50000   -0.04473
2800.00000   -0.06224
2800.50000   -0.07905
2801.00000   -0.09485
2801.50000   -0.10933
2802.00000   -0.12220
2802.50000   -0.13316
2803.00000   -0.14195
2803.50000   -0.14834
2804.00000   -0.15211
2804.50000   -0.15313
2805.00000   -0.15129
2805.50000   -0.14654
2806.00000   -0.13891
2806.50000   -0.12849
2807.00000   -0.11544
2807.50000   -0.10000
2808.00000   -0.08244
2808.50000   -0.06313
2809.00000   -0.04248
2809.50000   -0.02093
2810.00000    0.00105
2810.50000    0.02297
2811.00000    0.04435
2811.50000    0.06471
2812.00000    0.08364
2812.50000    0.10075
2813.00000    0.11570
2813.50000    0.12826
2814.00000    0.13823
2814.50000    0.14553
2815.00000    0.15013
2815.50000    0.15209
2816.00000    0.15152
2816.50000    0.14861
2817.00000    0.14357
2817.50000    0.13668
2818.00000    0.12820
2818.50000    0.11842
2819.00000    0.10762
2819.50000    0.09605
2820.00000    0.08394
2820.50000    0.07149
2821.00000    0.05888
2821.50000    0.04622
2822.00000    0.03361
2822.50000    0.02111
2823.00000    0.00876
2823.50000   -0.00342
2824.00000   -0.01544
2824.50000   -0.02728
2825.00000   -0.03896
2825.50000   -0.05046
2826.00000   -0.06179
2826.50000   -0.07292
2827.00000   -0.08381
2827.50000   -0.09442
2828.00000   -0.10470
2828.50000   -0.11459
2829.00000   -0.12402
2829.50000   -0.13293
2830.00000   -0.14126
2830.50000   -0.14893
2831.00000   -0.15589
2831.50000   -0.16210
2832.00000   -0.16751
2832.50000   -0.17209
2833.00000   -0.17580
2833.50000   -0.17864
2834.00000   -0.18058
2834.50000   -0.18163
2835.00000   -0.18177
2835.50000   -0.18100
2836.00000   -0.17932
2836.50000   -0.17674
2837.00000   -0.17325
2837.50000   -0.16887
2838.00000   -0.16360
2838.50000   -0.15745
2839.00000   -0.15043
2839.50000   -0.14258
2840.00000   -0.13393
2840.50000   -0.12452
2841.00000   -0.11441
2841.50000   -0.10368
2842.00000   -0.09242
2842.50000   -0.08075
2843.00000   -0.06878
2843.50000   -0.05667
2844.00000   -0.04457
2844.50000   -0.03264
2845.00000   -0.02106
2845.50000   -0.01000
2846.00000    0.00037
2846.50000    0.00992
2847.00000    0.01850
2847.50000    0.02601
2848.00000    0.03236
2848.50000    0.03753
2849.00000    0.04149
2849.50000    0.04427
2850.00000    0.04593
2850.50000    0.04656
2851.00000    0.04626
2851.50000    0.04518
2852.00000    0.04345
2852.50000    0.04124
2853.00000    0.03870
2853.50000    0.03598
2854.00000    0.03323
2854.50000    0.03060
2855.00000    0.02820
2855.50000    0.02615
2856.00000    0.02457
2856.50000    0.02355
2857.00000    0.02318
2857.50000    0.02356
2858.00000    0.02478
2858.50000    0.02692
2859.00000    0.03008
2859.50000    0.03432
2860.00000    0.03974
2860.50000    0.04638
2861.00000    0.05429
2861.50000    0.06350
2862.00000    0.07399
2862.50000    0.08571
2863.00000    0.09857
2863.50000    0.11246
2864.00000    0.12720
2864.50000    0.14258
2865.00000    0.15836
2865.50000    0.17427
2866.00000    0.19002
2866.50000    0.20532
2867.00000    0.21988
2867.50000    0.23340
2868.00000    0.24564
2868.50000    0.25638
2869.00000    0.26541
2869.50000    0.27262
2870.00000    0.27790
2870.50000    0.28122
2871.00000    0.28257
2871.50000    0.28201
2872.00000    0.27963
2872.50000    0.27556
2873.00000    0.26994
2873.50000    0.26297
2874.00000    0.25484
2874.50000    0.24576
2875.00000    0.23594
2875.50000    0.22560
2876.00000    0.21496
2876.50000    0.20422
2877.00000    0.19359
2877.50000    0.18323
2878.00000    0.17332
2878.50000    0.16401
2879.00000    0.15540
2879.50000    0.14758
2880.00000    0.14062
2880.50000    0.13454
2881.00000    0.12933
2881.50000    0.12493
2882.00000    0.12125
2882.50000    0.11819
2883.00000    0.11560
2883.50000    0.11329
2884.00000    0.11107
2884.50000    0.10875
2885.00000    0.10611
2885.50000    0.10295
2886.00000    0.09908
2886.50000    0.09435
2887.00000    0.08859
2887.50000    0.08171
2888.00000    0.07363
2888.50000    0.06431
2889.00000    0.05373
2889.50000    0.04193
2890.00000    0.02896
2890.50000    0.01489
2891.00000   -0.00018
2891.50000   -0.01614
2892.00000   -0.03288
2892.50000   -0.05029
2893.00000   -0.06825
2893.50000   -0.08667
2894.00000   -0.10543
2894.50000   -0.12446
2895.00000   -0.14369
2895.50000   -0.16305
2896.00000   -0.18249
2896.50000   -0.20198
2897.00000   -0.22147
2897.50000   -0.24097
2898.00000   -0.26045
2898.50000   -0.27991
2899.00000   -0.29936
2899.50000   -0.31881
