1200.50000    0.02672
1201.00000    0.02059
1201.50000    0.01445
1202.00000    0.00831
1202.50000    0.00217
1203.00000   -0.00395
1203.50000   -0.01002
1204.00000   -0.01600
1204.50000   -0.02184
1205.00000   -0.02747
1205.50000   -0.03281
1206.00000   -0.03779
1206.50000   -0.04232
1207.00000   -0.04630
1207.50000   -0.04966
1208.00000   -0.05230
1208.50000   -0.05416
1209.00000   -0.05518
1209.50000   -0.05531
1210.00000   -0.05455
1210.50000   -0.05290
1211.00000   -0.05037
1211.50000   -0.04701
1212.00000   -0.04291
1212.50000   -0.03814
1213.00000   -0.03281
1213.50000   -0.02705
1214.00000   -0.02098
1214.50000   -0.01475
1215.00000   -0.00848
1215.50000   -0.00231
1216.00000    0.00363
1216.50000    0.00922
1217.00000    0.01437
1217.50000    0.01900
1218.00000    0.02303
1218.50000    0.02644
1219.00000    0.02919
1219.50000    0.03130
1220.00000    0.03276
1220.50000    0.03363
1221.00000    0.03395
1221.50000    0.03378
1222.00000    0.03319
1222.50000    0.03225
1223.00000    0.03104
1223.50000    0.02963
1224.00000    0.02810
1224.50000    0.02650
1225.00000    0.02490
1225.50000    0.02335
1226.00000    0.02187
1226.50000    0.02052
1227.00000    0.01929
1227.50000    0.01822
1228.00000    0.01729
1228.50000    0.01651
1229.00000    0.01587
1229.50000    0.01537
1230.00000    0.01499
1230.50000    0.01472
1231.00000    0.01456
1231.50000    0.01449
1232.00000    0.01451
1232.50000    0.01461
1233.00000    0.01480
1233.50000    0.01508
1234.00000    0.01544
1234.50000    0.01589
1235.00000    0.01642
1235.50000    0.01705
1236.00000    0.01776
1236.50000    0.01854
1237.00000    0.01939
1237.50000    0.02027
1238.00000    0.02116
1238.50000    0.02204
1239.00000    0.02287
1239.50000    0.02360
1240.00000    0.02419
1240.50000    0.02460
1241.00000    0.02479
1241.50000    0.02471
1242.00000    0.02431
1242.50000    0.02358
1243.00000    0.02249
1243.50000    0.02102
1244.00000    0.01917
1244.50000    0.01695
1245.00000    0.01438
1245.50000    0.01148
1246.00000    0.00831
1246.50000    0.00491
1247.00000    0.00134
1247.50000   -0.00233
1248.00000   -0.00604
1248.50000   -0.00970
1249.00000   -0.01325
1249.50000   -0.01662
1250.00000   -0.01975
1250.50000   -0.02258
1251.00000   -0.02506
1251.50000   -0.02716
1252.00000   -0.02884
1252.50000   -0.03010
1253.00000   -0.03093
1253.50000   -0.03133
1254.00000   -0.03132
1254.50000   -0.03092
1255.00000   -0.03015
1255.50000   -0.02905
1256.00000   -0.02766
1256.50000   -0.02600
1257.00000   -0.02412
1257.50000   -0.02205
1258.00000   -0.01982
1258.50000   -0.01746
1259.00000   -0.01499
1259.50000   -0.01243
1260.00000   -0.00981
1260.50000   -0.00714
1261.00000   -0.00443
1261.50000   -0.00169
1262.00000    0.00105
1262.50000    0.00378
1263.00000    0.00648
1263.50000    0.00914
1264.00000    0.01171
1264.50000    0.01419
1265.00000    0.01653
1265.50000    0.01870
1266.00000    0.02067
1266.50000    0.02239
1267.00000    0.02384
1267.50000    0.02498
1268.00000    0.02578
1268.50000    0.02623
1269.00000    0.02631
1269.50000    0.02603
1270.00000    0.02538
1270.50000    0.02440
1271.00000    0.02310
1271.50000    0.02155
1272.00000    0.01978
1272.50000    0.01786
1273.00000    0.01587
1273.50000    0.01387
1274.00000    0.01194
1274.50000    0.01016
1275.00000    0.00860
1275.50000    0.00733
1276.00000    0.00641
1276.50000    0.00588
1277.00000    0.00577
1277.50000    0.00611
1278.00000    0.00688
1278.50000    0.00809
1279.00000    0.00968
1279.50000    0.01162
1280.00000    0.01384
1280.50000    0.01627
1281.00000    0.01882
1281.50000    0.02140
1282.00000    0.02392
1282.50000    0.02628
1283.00000    0.02839
1283.50000    0.03016
1284.00000    0.03151
1284.50000    0.03237
1285.00000    0.03268
1285.50000    0.03241
1286.00000    0.03151
1286.50000    0.02998
1287.00000    0.02782
1287.50000    0.02503
1288.00000    0.02165
1288.50000    0.01770
1289.00000    0.01323
1289.50000    0.00829
1290.00000    0.00294
1290.50000   -0.00276
1291.00000   -0.00875
1291.50000   -0.01495
1292.00000   -0.02130
1292.50000   -0.02774
1293.00000   -0.03419
1293.50000   -0.04059
1294.00000   -0.04686
1294.50000   -0.05294
1295.00000   -0.05877
1295.50000   -0.06426
1296.00000   -0.06936
1296.50000   -0.07399
1297.00000   -0.07809
1297.50000   -0.08158
1298.00000   -0.08441
1298.50000   -0.08651
1299.00000   -0.08784
1299.50000   -0.08835
1300.00000   -0.08800
1300.50000   -0.08678
1301.00000   -0.08468
1301.50000   -0.08171
1302.00000   -0.07789
1302.50000   -0.07328
1303.00000   -0.06795
1303.50000   -0.06196
1304.00000   -0.05543
1304.50000   -0.04846
1305.00000   -0.04119
1305.50000   -0.03374
1306.00000   -0.02627
1306.50000   -0.01890
1307.00000   -0.01177
1307.50000   -0.00502
1308.00000    0.00125
1308.50000    0.00693
1309.00000    0.01194
1309.50000    0.01623
1310.00000    0.01978
1310.50000    0.02257
1311.00000    0.02463
1311.50000    0.02603
1312.00000    0.02683
1312.50000    0.02714
1313.00000    0.02708
1313.50000    0.02679
1314.00000    0.02640
1314.50000    0.02608
1315.00000    0.02597
1315.50000    0.02623
1316.00000    0.02698
1316.50000    0.02836
1317.00000    0.03047
1317.50000    0.03340
1318.00000    0.03722
1318.50000    0.04197
1319.00000    0.04766
1319.50000    0.05431
1320.00000    0.06189
1320.50000    0.07035
1321.00000    0.07966
1321.50000    0.08975
1322.00000    0.10054
1322.50000    0.11199
1323.00000    0.12401
1323.50000    0.13654
1324.00000    0.14954
1324.50000    0.16295
1325.00000    0.17675
1325.50000    0.19090
1326.00000    0.20539
1326.50000    0.22022
1327.00000    0.23538
1327.50000    0.25089
1328.00000    0.26674
1328.50000    0.28294
1329.00000    0.29949
1329.50000    0.31637
1330.00000    0.33355
1330.50000    0.35101
1331.00000    0.36869
1331.50000    0.38651
1332.00000    0.40439
1332.50000    0.42223
1333.00000    0.43990
1333.50000    0.45729
1334.00000    0.47426
1334.50000    0.49065
1335.00000    0.50633
1335.50000    0.52115
1336.00000    0.53495
1336.50000    0.54762
1337.00000    0.55903
1337.50000    0.56905
1338.00000    0.57760
1338.50000    0.58459
1339.00000    0.58997
1339.50000    0.59366
1340.00000    0.59566
1340.50000    0.59592
1341.00000    0.59445
1341.50000    0.59125
1342.00000    0.58634
1342.50000    0.57973
1343.00000    0.57147
1343.50000    0.56160
1344.00000    0.55016
1344.50000    0.53719
1345.00000    0.52278
1345.50000    0.50697
1346.00000    0.48984
1346.50000    0.47149
1347.00000    0.45199
1347.50000    0.43144
1348.00000    0.40997
1348.50000    0.38769
1349.00000    0.36473
1349.50000    0.34124
1350.00000    0.31736
1350.50000    0.29325
1351.00000    0.26908
1351.50000    0.24500
1352.00000    0.22119
1352.50000    0.19781
1353.00000    0.17502
1353.50000    0.15297
1354.00000    0.13181
1354.50000    0.11165
1355.00000    0.09262
1355.50000    0.07481
1356.00000    0.05830
1356.50000    0.04314
1357.00000    0.02938
1357.50000    0.01703
1358.00000    0.00611
1358.50000   -0.00341
1359.00000   -0.01154
1359.50000   -0.01833
1360.00000   -0.02382
1360.50000   -0.02808
1361.00000   -0.03117
1361.50000   -0.03316
1362.00000   -0.03413
1362.50000   -0.03414
1363.00000   -0.03329
1363.50000   -0.03165
1364.00000   -0.02930
1364.50000   -0.02632
1365.00000   -0.02279
1365.50000   -0.01880
1366.00000   -0.01442
1366.50000   -0.00974
1367.00000   -0.00484
1367.50000    0.00019
1368.00000    0.00528
1368.50000    0.01033
1369.00000    0.01527
1369.50000    0.02002
1370.00000    0.02450
1370.50000    0.02864
1371.00000    0.03238
1371.50000    0.03565
1372.00000    0.03842
1372.50000    0.04065
1373.00000    0.04229
1373.50000    0.04334
1374.00000    0.04379
1374.50000    0.04364
1375.00000    0.04292
1375.50000    0.04163
1376.00000    0.03981
1376.50000    0.03752
1377.00000    0.03478
1377.50000    0.03165
1378.00000    0.02819
1378.50000    0.02446
1379.00000    0.02051
1379.50000    0.01640
1380.00000    0.01219
1380.50000    0.00795
1381.00000    0.00373
1381.50000   -0.00042
1382.00000   -0.00443
1382.50000   -0.00826
1383.00000   -0.01184
1383.50000   -0.01514
1384.00000   -0.01810
1384.50000   -0.02068
1385.00000   -0.02284
1385.50000   -0.02454
1386.00000   -0.02575
1386.50000   -0.02646
1387.00000   -0.02665
1387.50000   -0.02631
1388.00000   -0.02545
1388.50000   -0.02409
1389.00000   -0.02225
1389.50000   -0.01998
1390.00000   -0.01733
1390.50000   -0.01434
1391.00000   -0.01110
1391.50000   -0.00768
1392.00000   -0.00414
1392.50000   -0.00058
1393.00000    0.00293
1393.50000    0.00633
1394.00000    0.00953
1394.50000    0.01247
1395.00000    0.01512
1395.50000    0.01742
1396.00000    0.01936
1396.50000    0.02091
1397.00000    0.02207
1397.50000    0.02284
1398.00000    0.02323
1398.50000    0.02327
1399.00000    0.02297
1399.50000    0.02236
1400.00000    0.02148
1400.50000    0.02034
1401.00000    0.01896
1401.50000    0.01738
1402.00000    0.01561
1402.50000    0.01367
1403.00000    0.01157
1403.50000    0.00933
1404.00000    0.00697
1404.50000    0.00452
1405.00000    0.00199
1405.50000   -0.00058
1406.00000   -0.00315
1406.50000   -0.00567
1407.00000   -0.00808
1407.50000   -0.01032
1408.00000   -0.01234
1408.50000   -0.01406
1409.00000   -0.01542
1409.50000   -0.01637
1410.00000   -0.01685
1410.50000   -0.01684
1411.00000   -0.01631
1411.50000   -0.01528
1412.00000   -0.01376
1412.50000   -0.01182
1413.00000   -0.00953
1413.50000   -0.00699
1414.00000   -0.00432
1414.50000   -0.00166
1415.00000    0.00085
1415.50000    0.00306
1416.00000    0.00482
1416.50000    0.00598
1417.00000    0.00642
1417.50000    0.00603
1418.00000    0.00474
1418.50000    0.00251
1419.00000   -0.00069
1419.50000   -0.00481
1420.00000   -0.00979
1420.50000   -0.01553
1421.00000   -0.02189
1421.50000   -0.02871
1422.00000   -0.03581
1422.50000   -0.04298
1423.00000   -0.05002
1423.50000   -0.05673
1424.00000   -0.06291
1424.50000   -0.06839
1425.00000   -0.07301
1425.50000   -0.07665
1426.00000   -0.07922
1426.50000   -0.08066
1427.00000   -0.08095
1427.50000   -0.08011
1428.00000   -0.07818
1428.50000   -0.07524
1429.00000   -0.07140
1429.50000   -0.06678
1430.00000   -0.06152
1430.50000   -0.05576
1431.00000   -0.04964
1431.50000   -0.04332
1432.00000   -0.03690
1432.50000   -0.03053
1433.00000   -0.02429
1433.50000   -0.01827
1434.00000   -0.01252
1434.50000   -0.00710
1435.00000   -0.00202
1435.50000    0.00271
1436.00000    0.00710
1436.50000    0.01116
1437.00000    0.01494
1437.50000    0.01845
1438.00000    0.02174
1438.50000    0.02483
1439.00000    0.02777
1439.50000    0.03058
1440.00000    0.03328
1440.50000    0.03588
1441.00000    0.03839
1441.50000    0.04080
1442.00000    0.04311
1442.50000    0.04530
1443.00000    0.04737
1443.50000    0.04930
1444.00000    0.05106
1444.50000    0.05265
1445.00000    0.05406
1445.50000    0.05528
1446.00000    0.05631
1446.50000    0.05715
1447.00000    0.05783
1447.50000    0.05835
1448.00000    0.05875
1448.50000    0.05905
1449.00000    0.05928
1449.50000    0.05949
1450.00000    0.05970
1450.50000    0.05994
1451.00000    0.06025
1451.50000    0.06064
1452.00000    0.06112
1452.50000    0.06170
1453.00000    0.06237
1453.50000    0.06310
1454.00000    0.06385
1454.50000    0.06458
1455.00000    0.06523
1455.50000    0.06573
1456.00000    0.06599
1456.50000    0.06592
1457.00000    0.06545
1457.50000    0.06448
1458.00000    0.06292
1458.50000    0.06071
1459.00000    0.05777
1459.50000    0.05406
1460.00000    0.04956
1460.50000    0.04425
1461.00000    0.03816
1461.50000    0.03133
1462.00000    0.02383
1462.50000    0.01574
1463.00000    0.00720
1463.50000   -0.00168
1464.00000   -0.01074
1464.50000   -0.01983
1465.00000   -0.02878
1465.50000   -0.03744
1466.00000   -0.04565
1466.50000   -0.05327
1467.00000   -0.06017
1467.50000   -0.06625
1468.00000   -0.07142
1468.50000   -0.07563
1469.00000   -0.07885
1469.50000   -0.08109
1470.00000   -0.08238
1470.50000   -0.08277
1471.00000   -0.08233
1471.50000   -0.08117
1472.00000   -0.07938
1472.50000   -0.07708
1473.00000   -0.07439
1473.50000   -0.07141
1474.00000   -0.06826
1474.50000   -0.06503
1475.00000   -0.06181
1475.50000   -0.05865
1476.00000   -0.05560
1476.50000   -0.05270
1477.00000   -0.04996
1477.50000   -0.04738
1478.00000   -0.04495
1478.50000   -0.04263
1479.00000   -0.04039
1479.50000   -0.03821
1480.00000   -0.03603
1480.50000   -0.03383
1481.00000   -0.03157
1481.50000   -0.02923
1482.00000   -0.02680
1482.50000   -0.02426
1483.00000   -0.02162
1483.50000   -0.01890
1484.00000   -0.01611
1484.50000   -0.01329
1485.00000   -0.01047
1485.50000   -0.00769
1486.00000   -0.00499
1486.50000   -0.00242
1487.00000   -0.00001
1487.50000    0.00219
1488.00000    0.00415
1488.50000    0.00584
1489.00000    0.00724
1489.50000    0.00833
1490.00000    0.00911
1490.50000    0.00957
1491.00000    0.00971
1491.50000    0.00955
1492.00000    0.00911
1492.50000    0.00839
1493.00000    0.00744
1493.50000    0.00628
1494.00000    0.00496
1494.50000    0.00350
1495.00000    0.00196
1495.50000    0.00038
1496.00000   -0.00119
1496.50000   -0.00270
1497.00000   -0.00408
1497.50000   -0.00530
1498.00000   -0.00629
1498.50000   -0.00699
1499.00000   -0.00736
1499.50000   -0.00735
1500.00000   -0.00692
1500.50000   -0.00603
1501.00000   -0.00465
1501.50000   -0.00277
1502.00000   -0.00037
1502.50000    0.00254
1503.00000    0.00594
1503.50000    0.00981
1504.00000    0.01409
1504.50000    0.01875
1505.00000    0.02371
1505.50000    0.02889
1506.00000    0.03420
1506.50000    0.03955
1507.00000    0.04483
1507.50000    0.04995
1508.00000    0.05478
1508.50000    0.05922
1509.00000    0.06317
1509.50000    0.06652
1510.00000    0.06919
1510.50000    0.07109
1511.00000    0.07216
1511.50000    0.07234
1512.00000    0.07160
1512.50000    0.06992
1513.00000    0.06731
1513.50000    0.06378
1514.00000    0.05938
1514.50000    0.05416
1515.00000    0.04821
1515.50000    0.04160
1516.00000    0.03447
1516.50000    0.02691
1517.00000    0.01907
1517.50000    0.01107
1518.00000    0.00306
1518.50000   -0.00481
1519.00000   -0.01243
1519.50000   -0.01965
1520.00000   -0.02637
1520.50000   -0.03247
1521.00000   -0.03786
1521.50000   -0.04247
1522.00000   -0.04625
1522.50000   -0.04917
1523.00000   -0.05121
1523.50000   -0.05238
1524.00000   -0.05270
1524.50000   -0.05221
1525.00000   -0.05098
1525.50000   -0.04906
1526.00000   -0.04655
1526.50000   -0.04351
1527.00000   -0.04005
1527.50000   -0.03624
1528.00000   -0.03220
1528.50000   -0.02799
1529.00000   -0.02370
1529.50000   -0.01943
1530.00000   -0.01522
1530.50000   -0.01116
1531.00000   -0.00731
1531.50000   -0.00370
1532.00000   -0.00040
1532.50000    0.00255
1533.00000    0.00513
1533.50000    0.00729
1534.00000    0.00902
1534.50000    0.01029
1535.00000    0.01108
1535.50000    0.01139
1536.00000    0.01121
1536.50000    0.01055
1537.00000    0.00943
1537.50000    0.00787
1538.00000    0.00591
1538.50000    0.00360
1539.00000    0.00099
1539.50000   -0.00183
1540.00000   -0.00480
1540.50000   -0.00782
1541.00000   -0.01080
1541.50000   -0.01364
1542.00000   -0.01623
1542.50000   -0.01849
1543.00000   -0.02031
1543.50000   -0.02163
1544.00000   -0.02237
1544.50000   -0.02249
1545.00000   -0.02195
1545.50000   -0.02073
1546.00000   -0.01883
1546.50000   -0.01628
1547.00000   -0.01311
1547.50000   -0.00936
1548.00000   -0.00509
1548.50000   -0.00036
1549.00000    0.00476
1549.50000    0.01022
1550.00000    0.01597
1550.50000    0.02197
1551.00000    0.02819
1551.50000    0.03463
1552.00000    0.04131
1552.50000    0.04825
1553.00000    0.05550
1553.50000    0.06315
1554.00000    0.07128
1554.50000    0.07998
1555.00000    0.08936
1555.50000    0.09954
1556.00000    0.11063
1556.50000    0.12273
1557.00000    0.13594
1557.50000    0.15036
1558.00000    0.16605
1558.50000    0.18309
1559.00000    0.20151
1559.50000    0.22135
1560.00000    0.24263
1560.50000    0.26536
1561.00000    0.28953
1561.50000    0.31513
1562.00000    0.34217
1562.50000    0.37064
1563.00000    0.40053
1563.50000    0.43185
1564.00000    0.46463
1564.50000    0.49889
1565.00000    0.53468
1565.50000    0.57207
1566.00000    0.61112
1566.50000    0.65194
1567.00000    0.69463
1567.50000    0.73928
1568.00000    0.78602
1568.50000    0.83496
1569.00000    0.88621
1569.50000    0.93988
1570.00000    0.99603
1570.50000    1.05475
1571.00000    1.11607
1571.50000    1.18000
1572.00000    1.24651
1572.50000    1.31553
1573.00000    1.38694
1573.50000    1.46058
1574.00000    1.53624
1574.50000    1.61364
1575.00000    1.69246
1575.50000    1.77232
1576.00000    1.85277
1576.50000    1.93333
1577.00000    2.01348
1577.50000    2.09262
1578.00000    2.17015
1578.50000    2.24544
1579.00000    2.31783
1579.50000    2.38665
1580.00000    2.45125
1580.50000    2.51097
1581.00000    2.56520
1581.50000    2.61334
1582.00000    2.65485
1582.50000    2.68924
1583.00000    2.71609
1583.50000    2.73505
1584.00000    2.74583
1584.50000    2.74826
1585.00000    2.74224
1585.50000    2.72774
1586.00000    2.70486
1586.50000    2.67378
1587.00000    2.63474
1587.50000    2.58812
1588.00000    2.53432
1588.50000    2.47386
1589.00000    2.40729
1589.50000    2.33524
1590.00000    2.25837
1590.50000    2.17737
1591.00000    2.09298
1591.50000    2.00592
1592.00000    1.91694
1592.50000    1.82676
1593.00000    1.73610
1593.50000    1.64564
1594.00000    1.55603
1594.50000    1.46788
1595.00000    1.38172
1595.50000    1.29806
1596.00000    1.21733
1596.50000    1.13988
1597.00000    1.06601
1597.50000    0.99596
1598.00000    0.92988
1598.50000    0.86788
1599.00000    0.80999
1599.50000    0.75621
1600.00000    0.70646
1600.50000    0.66066
1601.00000    0.61868
1601.50000    0.58035
1602.00000    0.54551
1602.50000    0.51398
1603.00000    0.48556
1603.50000    0.46008
1604.00000    0.43734
1604.50000    0.41718
1605.00000    0.39941
1605.50000    0.38389
1606.00000    0.37045
1606.50000    0.35895
1607.00000    0.34925
1607.50000    0.34121
1608.00000    0.33468
1608.50000    0.32952
1609.00000    0.32560
1609.50000    0.32277
1610.00000    0.32086
1610.50000    0.31972
1611.00000    0.31920
1611.50000    0.31914
1612.00000    0.31936
1612.50000    0.31971
1613.00000    0.32005
1613.50000    0.32022
1614.00000    0.32009
1614.50000    0.31954
1615.00000    0.31847
1615.50000    0.31678
1616.00000    0.31440
1616.50000    0.31126
1617.00000    0.30732
1617.50000    0.30255
1618.00000    0.29692
1618.50000    0.29043
1619.00000    0.28308
1619.50000    0.27488
1620.00000    0.26584
1620.50000    0.25599
1621.00000    0.24537
1621.50000    0.23400
1622.00000    0.22195
1622.50000    0.20926
1623.00000    0.19600
1623.50000    0.18224
1624.00000    0.16806
1624.50000    0.15356
1625.00000    0.13883
1625.50000    0.12400
1626.00000    0.10917
1626.50000    0.09447
1627.00000    0.08003
1627.50000    0.06596
1628.00000    0.05238
1628.50000    0.03940
1629.00000    0.02711
1629.50000    0.01560
1630.00000    0.00493
1630.50000   -0.00486
1631.00000   -0.01375
1631.50000   -0.02174
1632.00000   -0.02885
1632.50000   -0.03511
1633.00000   -0.04059
1633.50000   -0.04535
1634.00000   -0.04946
1634.50000   -0.05301
1635.00000   -0.05608
1635.50000   -0.05873
1636.00000   -0.06104
1636.50000   -0.06305
1637.00000   -0.06480
1637.50000   -0.06631
1638.00000   -0.06757
1638.50000   -0.06858
1639.00000   -0.06929
1639.50000   -0.06965
1640.00000   -0.06962
1640.50000   -0.06913
1641.00000   -0.06812
1641.50000   -0.06651
1642.00000   -0.06425
1642.50000   -0.06130
1643.00000   -0.05762
1643.50000   -0.05319
1644.00000   -0.04803
1644.50000   -0.04215
1645.00000   -0.03560
1645.50000   -0.02845
1646.00000   -0.02079
1646.50000   -0.01272
1647.00000   -0.00436
1647.50000    0.00416
1648.00000    0.01271
1648.50000    0.02114
1649.00000    0.02931
1649.50000    0.03710
1650.00000    0.04437
1650.50000    0.05102
1651.00000    0.05694
1651.50000    0.06205
1652.00000    0.06628
1652.50000    0.06960
1653.00000    0.07198
1653.50000    0.07341
1654.00000    0.07390
1654.50000    0.07349
1655.00000    0.07221
1655.50000    0.07013
1656.00000    0.06731
1656.50000    0.06383
1657.00000    0.05978
1657.50000    0.05524
1658.00000    0.05031
1658.50000    0.04508
1659.00000    0.03963
1659.50000    0.03406
1660.00000    0.02844
1660.50000    0.02286
1661.00000    0.01739
1661.50000    0.01210
1662.00000    0.00706
1662.50000    0.00231
1663.00000   -0.00208
1663.50000   -0.00607
1664.00000   -0.00962
1664.50000   -0.01268
1665.00000   -0.01523
1665.50000   -0.01724
1666.00000   -0.01868
1666.50000   -0.01955
1667.00000   -0.01984
1667.50000   -0.01955
1668.00000   -0.01869
1668.50000   -0.01728
1669.00000   -0.01536
1669.50000   -0.01297
1670.00000   -0.01015
1670.50000   -0.00698
1671.00000   -0.00352
1671.50000    0.00013
1672.00000    0.00390
1672.50000    0.00768
1673.00000    0.01139
1673.50000    0.01493
1674.00000    0.01820
1674.50000    0.02112
1675.00000    0.02361
1675.50000    0.02561
1676.00000    0.02704
1676.50000    0.02789
1677.00000    0.02812
1677.50000    0.02773
1678.00000    0.02673
1678.50000    0.02516
1679.00000    0.02304
1679.50000    0.02045
1680.00000    0.01745
1680.50000    0.01413
1681.00000    0.01058
1681.50000    0.00689
1682.00000    0.00316
1682.50000   -0.00052
1683.00000   -0.00404
1683.50000   -0.00733
1684.00000   -0.01030
1684.50000   -0.01290
1685.00000   -0.01506
1685.50000   -0.01674
1686.00000   -0.01792
1686.50000   -0.01859
1687.00000   -0.01874
1687.50000   -0.01839
1688.00000   -0.01757
1688.50000   -0.01631
1689.00000   -0.01466
1689.50000   -0.01267
1690.00000   -0.01042
1690.50000   -0.00797
1691.00000   -0.00539
1691.50000   -0.00275
1692.00000   -0.00012
1692.50000    0.00242
1693.00000    0.00482
1693.50000    0.00702
1694.00000    0.00896
1694.50000    0.01060
1695.00000    0.01191
1695.50000    0.01287
1696.00000    0.01346
1696.50000    0.01368
1697.00000    0.01356
1697.50000    0.01310
1698.00000    0.01234
1698.50000    0.01132
1699.00000    0.01010
1699.50000    0.00872
1700.00000    0.00724
1700.50000    0.00572
1701.00000    0.00423
1701.50000    0.00282
1702.00000    0.00153
1702.50000    0.00042
1703.00000   -0.00048
1703.50000   -0.00113
1704.00000   -0.00153
1704.50000   -0.00167
1705.00000   -0.00154
1705.50000   -0.00116
1706.00000   -0.00056
1706.50000    0.00022
1707.00000    0.00116
1707.50000    0.00220
1708.00000    0.00330
1708.50000    0.00440
1709.00000    0.00547
1709.50000    0.00646
1710.00000    0.00732
1710.50000    0.00803
1711.00000    0.00856
1711.50000    0.00889
1712.00000    0.00903
1712.50000    0.00896
1713.00000    0.00870
1713.50000    0.00826
1714.00000    0.00767
1714.50000    0.00694
1715.00000    0.00610
1715.50000    0.00518
1716.00000    0.00419
1716.50000    0.00317
1717.00000    0.00211
1717.50000    0.00104
1718.00000   -0.00006
1718.50000   -0.00117
1719.00000   -0.00231
1719.50000   -0.00349
1720.00000   -0.00473
1720.50000   -0.00606
1721.00000   -0.00748
1721.50000   -0.00901
1722.00000   -0.01068
1722.50000   -0.01248
1723.00000   -0.01442
1723.50000   -0.01648
1724.00000   -0.01865
1724.50000   -0.02089
1725.00000   -0.02318
1725.50000   -0.02545
1726.00000   -0.02766
1726.50000   -0.02975
1727.00000   -0.03165
1727.50000   -0.03331
1728.00000   -0.03468
1728.50000   -0.03570
1729.00000   -0.03632
1729.50000   -0.03653
1730.00000   -0.03631
1730.50000   -0.03565
1731.00000   -0.03456
1731.50000   -0.03308
1732.00000   -0.03124
1732.50000   -0.02910
1733.00000   -0.02671
1733.50000   -0.02414
1734.00000   -0.02146
1734.50000   -0.01874
1735.00000   -0.01604
1735.50000   -0.01340
1736.00000   -0.01087
1736.50000   -0.00847
1737.00000   -0.00620
1737.50000   -0.00405
1738.00000   -0.00198
1738.50000    0.00004
1739.00000    0.00210
1739.50000    0.00427
1740.00000    0.00664
1740.50000    0.00930
1741.00000    0.01234
1741.50000    0.01585
1742.00000    0.01991
1742.50000    0.02458
1743.00000    0.02990
1743.50000    0.03589
1744.00000    0.04255
1744.50000    0.04983
1745.00000    0.05768
1745.50000    0.06600
1746.00000    0.07467
1746.50000    0.08357
1747.00000    0.09252
1747.50000    0.10134
1748.00000    0.10986
1748.50000    0.11788
1749.00000    0.12521
1749.50000    0.13168
1750.00000    0.13711
1750.50000    0.14135
1751.00000    0.14429
1751.50000    0.14583
1752.00000    0.14589
1752.50000    0.14446
1753.00000    0.14152
1753.50000    0.13711
1754.00000    0.13130
1754.50000    0.12418
1755.00000    0.11587
1755.50000    0.10651
1756.00000    0.09626
1756.50000    0.08530
1757.00000    0.07382
1757.50000    0.06199
1758.00000    0.05002
1758.50000    0.03808
1759.00000    0.02635
1759.50000    0.01500
1760.00000    0.00418
1760.50000   -0.00597
1761.00000   -0.01534
1761.50000   -0.02381
1762.00000   -0.03131
1762.50000   -0.03778
1763.00000   -0.04315
1763.50000   -0.04740
1764.00000   -0.05051
1764.50000   -0.05248
1765.00000   -0.05332
1765.50000   -0.05305
1766.00000   -0.05171
1766.50000   -0.04936
1767.00000   -0.04603
1767.50000   -0.04182
1768.00000   -0.03678
1768.50000   -0.03103
1769.00000   -0.02466
1769.50000   -0.01777
1770.00000   -0.01050
1770.50000   -0.00297
1771.00000    0.00468
1771.50000    0.01229
1772.00000    0.01973
1772.50000    0.02684
1773.00000    0.03347
1773.50000    0.03948
1774.00000    0.04472
1774.50000    0.04909
1775.00000    0.05247
1775.50000    0.05477
1776.00000    0.05594
1776.50000    0.05594
1777.00000    0.05476
1777.50000    0.05243
1778.00000    0.04900
1778.50000    0.04456
1779.00000    0.03923
1779.50000    0.03312
1780.00000    0.02641
1780.50000    0.01926
1781.00000    0.01186
1781.50000    0.00438
1782.00000   -0.00299
1782.50000   -0.01008
1783.00000   -0.01674
1783.50000   -0.02283
1784.00000   -0.02825
1784.50000   -0.03289
1785.00000   -0.03672
1785.50000   -0.03970
1786.00000   -0.04184
1786.50000   -0.04316
1787.00000   -0.04372
1787.50000   -0.04358
1788.00000   -0.04283
1788.50000   -0.04156
1789.00000   -0.03989
1789.50000   -0.03789
1790.00000   -0.03568
1790.50000   -0.03333
1791.00000   -0.03092
1791.50000   -0.02851
1792.00000   -0.02613
1792.50000   -0.02383
1793.00000   -0.02162
1793.50000   -0.01950
1794.00000   -0.01746
1794.50000   -0.01550
1795.00000   -0.01360
1795.50000   -0.01174
1796.00000   -0.00992
1796.50000   -0.00812
1797.00000   -0.00635
1797.50000   -0.00462
1798.00000   -0.00294
1798.50000   -0.00134
1799.00000    0.00016
1799.50000    0.00152
1800.00000    0.00272
1800.50000    0.00371
1801.00000    0.00448
1801.50000    0.00500
1802.00000    0.00526
1802.50000    0.00528
1803.00000    0.00504
1803.50000    0.00458
1804.00000    0.00393
1804.50000    0.00313
1805.00000    0.00223
1805.50000    0.00126
1806.00000    0.00030
1806.50000   -0.00061
1807.00000   -0.00143
1807.50000   -0.00211
1808.00000   -0.00263
1808.50000   -0.00296
1809.00000   -0.00309
1809.50000   -0.00302
1810.00000   -0.00276
1810.50000   -0.00232
1811.00000   -0.00172
1811.50000   -0.00099
1812.00000   -0.00016
1812.50000    0.00076
1813.00000    0.00174
1813.50000    0.00277
1814.00000    0.00384
1814.50000    0.00493
1815.00000    0.00607
1815.50000    0.00724
1816.00000    0.00846
1816.50000    0.00974
1817.00000    0.01110
1817.50000    0.01253
1818.00000    0.01405
1818.50000    0.01565
1819.00000    0.01732
1819.50000    0.01905
1820.00000    0.02081
1820.50000    0.02257
1821.00000    0.02429
1821.50000    0.02593
1822.00000    0.02745
1822.50000    0.02879
1823.00000    0.02993
1823.50000    0.03082
1824.00000    0.03144
1824.50000    0.03176
1825.00000    0.03177
1825.50000    0.03147
1826.00000    0.03087
1826.50000    0.03000
1827.00000    0.02888
1827.50000    0.02754
1828.00000    0.02603
1828.50000    0.02440
1829.00000    0.02267
1829.50000    0.02091
1830.00000    0.01915
1830.50000    0.01742
1831.00000    0.01575
1831.50000    0.01417
1832.00000    0.01269
1832.50000    0.01133
1833.00000    0.01008
1833.50000    0.00894
1834.00000    0.00790
1834.50000    0.00696
1835.00000    0.00610
1835.50000    0.00529
1836.00000    0.00453
1836.50000    0.00379
1837.00000    0.00305
1837.50000    0.00229
1838.00000    0.00149
1838.50000    0.00064
1839.00000   -0.00028
1839.50000   -0.00128
1840.00000   -0.00239
1840.50000   -0.00360
1841.00000   -0.00493
1841.50000   -0.00638
1842.00000   -0.00795
1842.50000   -0.00963
1843.00000   -0.01142
1843.50000   -0.01329
1844.00000   -0.01523
1844.50000   -0.01720
1845.00000   -0.01918
1845.50000   -0.02113
1846.00000   -0.02301
1846.50000   -0.02479
1847.00000   -0.02642
1847.50000   -0.02787
1848.00000   -0.02911
1848.50000   -0.03011
1849.00000   -0.03085
1849.50000   -0.03133
1850.00000   -0.03153
1850.50000   -0.03148
1851.00000   -0.03118
1851.50000   -0.03067
1852.00000   -0.02996
1852.50000   -0.02909
1853.00000   -0.02810
1853.50000   -0.02702
1854.00000   -0.02588
1854.50000   -0.02471
1855.00000   -0.02352
1855.50000   -0.02233
1856.00000   -0.02112
1856.50000   -0.01990
1857.00000   -0.01864
1857.50000   -0.01731
1858.00000   -0.01587
1858.50000   -0.01430
1859.00000   -0.01256
1859.50000   -0.01059
1860.00000   -0.00839
1860.50000   -0.00593
1861.00000   -0.00319
1861.50000   -0.00019
1862.00000    0.00307
1862.50000    0.00654
1863.00000    0.01017
1863.50000    0.01392
1864.00000    0.01770
1864.50000    0.02144
1865.00000    0.02504
1865.50000    0.02843
1866.00000    0.03151
1866.50000    0.03422
1867.00000    0.03647
1867.50000    0.03822
1868.00000    0.03942
1868.50000    0.04006
1869.00000    0.04012
1869.50000    0.03962
1870.00000    0.03860
1870.50000    0.03711
1871.00000    0.03521
1871.50000    0.03297
1872.00000    0.03049
1872.50000    0.02786
1873.00000    0.02515
1873.50000    0.02246
1874.00000    0.01987
1874.50000    0.01746
1875.00000    0.01527
1875.50000    0.01337
1876.00000    0.01177
1876.50000    0.01050
1877.00000    0.00955
1877.50000    0.00892
1878.00000    0.00859
1878.50000    0.00852
1879.00000    0.00867
1879.50000    0.00900
1880.00000    0.00944
1880.50000    0.00997
1881.00000    0.01051
1881.50000    0.01103
1882.00000    0.01148
1882.50000    0.01182
1883.00000    0.01201
1883.50000    0.01203
1884.00000    0.01183
1884.50000    0.01142
1885.00000    0.01076
1885.50000    0.00984
1886.00000    0.00865
1886.50000    0.00719
1887.00000    0.00545
1887.50000    0.00343
1888.00000    0.00113
1888.50000   -0.00144
1889.00000   -0.00428
1889.50000   -0.00737
1890.00000   -0.01070
1890.50000   -0.01425
1891.00000   -0.01797
1891.50000   -0.02184
1892.00000   -0.02582
1892.50000   -0.02986
1893.00000   -0.03390
1893.50000   -0.03789
1894.00000   -0.04176
1894.50000   -0.04545
1895.00000   -0.04889
1895.50000   -0.05202
1896.00000   -0.05478
1896.50000   -0.05709
1897.00000   -0.05891
1897.50000   -0.06019
1898.00000   -0.06087
1898.50000   -0.06094
1899.00000   -0.06035
1899.50000   -0.05909
1900.00000   -0.05716
1900.50000   -0.05454
1901.00000   -0.05125
1901.50000   -0.04731
1902.00000   -0.04273
1902.50000   -0.03756
1903.00000   -0.03184
1903.50000   -0.02561
1904.00000   -0.01893
1904.50000   -0.01188
1905.00000   -0.00452
1905.50000    0.00307
1906.00000    0.01080
1906.50000    0.01858
1907.00000    0.02632
1907.50000    0.03390
1908.00000    0.04124
1908.50000    0.04823
1909.00000    0.05476
1909.50000    0.06074
1910.00000    0.06607
1910.50000    0.07066
1911.00000    0.07445
1911.50000    0.07736
1912.00000    0.07934
1912.50000    0.08035
1913.00000    0.08038
1913.50000    0.07940
1914.00000    0.07743
1914.50000    0.07450
1915.00000    0.07065
1915.50000    0.06593
1916.00000    0.06041
1916.50000    0.05417
1917.00000    0.04730
1917.50000    0.03990
1918.00000    0.03207
1918.50000    0.02392
1919.00000    0.01555
1919.50000    0.00709
1920.00000   -0.00137
1920.50000   -0.00973
1921.00000   -0.01787
1921.50000   -0.02572
1922.00000   -0.03318
1922.50000   -0.04017
1923.00000   -0.04662
1923.50000   -0.05247
1924.00000   -0.05766
1924.50000   -0.06215
1925.00000   -0.06589
1925.50000   -0.06886
1926.00000   -0.07104
1926.50000   -0.07241
1927.00000   -0.07296
1927.50000   -0.07271
1928.00000   -0.07167
1928.50000   -0.06985
1929.00000   -0.06728
1929.50000   -0.06401
1930.00000   -0.06008
1930.50000   -0.05554
1931.00000   -0.05046
1931.50000   -0.04491
1932.00000   -0.03896
1932.50000   -0.03271
1933.00000   -0.02624
1933.50000   -0.01965
1934.00000   -0.01303
1934.50000   -0.00649
1935.00000   -0.00012
1935.50000    0.00597
1936.00000    0.01169
1936.50000    0.01697
1937.00000    0.02171
1937.50000    0.02586
1938.00000    0.02936
1938.50000    0.03216
1939.00000    0.03425
1939.50000    0.03563
1940.00000    0.03629
1940.50000    0.03626
1941.00000    0.03559
1941.50000    0.03434
1942.00000    0.03258
1942.50000    0.03039
1943.00000    0.02787
1943.50000    0.02511
1944.00000    0.02222
1944.50000    0.01930
1945.00000    0.01646
1945.50000    0.01379
1946.00000    0.01139
1946.50000    0.00933
1947.00000    0.00768
1947.50000    0.00650
1948.00000    0.00583
1948.50000    0.00571
1949.00000    0.00613
1949.50000    0.00710
1950.00000    0.00860
1950.50000    0.01059
1951.00000    0.01302
1951.50000    0.01582
1952.00000    0.01892
1952.50000    0.02223
1953.00000    0.02564
1953.50000    0.02904
1954.00000    0.03233
1954.50000    0.03536
1955.00000    0.03803
1955.50000    0.04020
1956.00000    0.04175
1956.50000    0.04258
1957.00000    0.04258
1957.50000    0.04166
1958.00000    0.03976
1958.50000    0.03683
1959.00000    0.03285
1959.50000    0.02783
1960.00000    0.02180
1960.50000    0.01483
1961.00000    0.00702
1961.50000   -0.00152
1962.00000   -0.01062
1962.50000   -0.02011
1963.00000   -0.02979
1963.50000   -0.03946
1964.00000   -0.04889
1964.50000   -0.05787
1965.00000   -0.06617
1965.50000   -0.07359
1966.00000   -0.07995
1966.50000   -0.08508
1967.00000   -0.08885
1967.50000   -0.09117
1968.00000   -0.09197
1968.50000   -0.09124
1969.00000   -0.08900
1969.50000   -0.08531
1970.00000   -0.08027
1970.50000   -0.07401
1971.00000   -0.06670
1971.50000   -0.05853
1972.00000   -0.04971
1972.50000   -0.04046
1973.00000   -0.03101
1973.50000   -0.02158
1974.00000   -0.01239
1974.50000   -0.00364
1975.00000    0.00447
1975.50000    0.01180
1976.00000    0.01821
1976.50000    0.02361
1977.00000    0.02793
1977.50000    0.03116
1978.00000    0.03330
1978.50000    0.03439
1979.00000    0.03452
1979.50000    0.03380
1980.00000    0.03236
1980.50000    0.03036
1981.00000    0.02798
1981.50000    0.02539
1982.00000    0.02280
1982.50000    0.02039
1983.00000    0.01836
1983.50000    0.01688
1984.00000    0.01612
1984.50000    0.01622
1985.00000    0.01730
1985.50000    0.01945
1986.00000    0.02274
1986.50000    0.02719
1987.00000    0.03281
1987.50000    0.03956
1988.00000    0.04738
1988.50000    0.05616
1989.00000    0.06577
1989.50000    0.07606
1990.00000    0.08685
1990.50000    0.09794
1991.00000    0.10910
1991.50000    0.12011
1992.00000    0.13074
1992.50000    0.14075
1993.00000    0.14992
1993.50000    0.15803
1994.00000    0.16488
1994.50000    0.17031
1995.00000    0.17415
1995.50000    0.17630
1996.00000    0.17668
1996.50000    0.17525
1997.00000    0.17200
1997.50000    0.16700
1998.00000    0.16031
1998.50000    0.15206
1999.00000    0.14241
1999.50000    0.13156
2000.00000    0.11972
2000.50000    0.10714
2001.00000    0.09407
2001.50000    0.08077
2002.00000    0.06751
2002.50000    0.05454
2003.00000    0.04211
2003.50000    0.03043
2004.00000    0.01970
2004.50000    0.01009
2005.00000    0.00172
2005.50000   -0.00531
2006.00000   -0.01094
2006.50000   -0.01516
2007.00000   -0.01797
2007.50000   -0.01943
2008.00000   -0.01961
2008.50000   -0.01861
2009.00000   -0.01657
2009.50000   -0.01361
2010.00000   -0.00989
2010.50000   -0.00557
2011.00000   -0.00080
2011.50000    0.00424
2012.00000    0.00942
2012.50000    0.01457
2013.00000    0.01958
2013.50000    0.02429
2014.00000    0.02862
2014.50000    0.03245
2015.00000    0.03571
2015.50000    0.03832
2016.00000    0.04023
2016.50000    0.04142
2017.00000    0.04184
2017.50000    0.04151
2018.00000    0.04043
2018.50000    0.03862
2019.00000    0.03612
2019.50000    0.03299
2020.00000    0.02928
2020.50000    0.02507
2021.00000    0.02043
2021.50000    0.01545
2022.00000    0.01022
2022.50000    0.00483
2023.00000   -0.00065
2023.50000   -0.00612
2024.00000   -0.01150
2024.50000   -0.01674
2025.00000   -0.02177
2025.50000   -0.02653
2026.00000   -0.03100
2026.50000   -0.03513
2027.00000   -0.03891
2027.50000   -0.04233
2028.00000   -0.04539
2028.50000   -0.04806
2029.00000   -0.05037
2029.50000   -0.05231
2030.00000   -0.05388
2030.50000   -0.05507
2031.00000   -0.05588
2031.50000   -0.05629
2032.00000   -0.05628
2032.50000   -0.05584
2033.00000   -0.05494
2033.50000   -0.05355
2034.00000   -0.05166
2034.50000   -0.04925
2035.00000   -0.04631
2035.50000   -0.04283
2036.00000   -0.03884
2036.50000   -0.03436
2037.00000   -0.02943
2037.50000   -0.02411
2038.00000   -0.01848
2038.50000   -0.01261
2039.00000   -0.00662
2039.50000   -0.00061
2040.00000    0.00530
2040.50000    0.01101
2041.00000    0.01640
2041.50000    0.02135
2042.00000    0.02578
2042.50000    0.02960
2043.00000    0.03273
2043.50000    0.03513
2044.00000    0.03678
2044.50000    0.03765
2045.00000    0.03776
2045.50000    0.03715
2046.00000    0.03585
2046.50000    0.03394
2047.00000    0.03148
2047.50000    0.02855
2048.00000    0.02525
2048.50000    0.02166
2049.00000    0.01788
2049.50000    0.01399
2050.00000    0.01006
2050.50000    0.00618
2051.00000    0.00239
2051.50000   -0.00123
2052.00000   -0.00465
2052.50000   -0.00784
2053.00000   -0.01076
2053.50000   -0.01341
2054.00000   -0.01575
2054.50000   -0.01779
2055.00000   -0.01952
2055.50000   -0.02093
2056.00000   -0.02203
2056.50000   -0.02282
2057.00000   -0.02329
2057.50000   -0.02344
2058.00000   -0.02328
2058.50000   -0.02280
2059.00000   -0.02201
2059.50000   -0.02092
2060.00000   -0.01953
2060.50000   -0.01785
2061.00000   -0.01590
2061.50000   -0.01371
2062.00000   -0.01129
2062.50000   -0.00870
2063.00000   -0.00595
2063.50000   -0.00310
2064.00000   -0.00021
2064.50000    0.00269
2065.00000    0.00552
2065.50000    0.00823
2066.00000    0.01076
2066.50000    0.01305
2067.00000    0.01504
2067.50000    0.01670
2068.00000    0.01798
2068.50000    0.01884
2069.00000    0.01927
2069.50000    0.01926
2070.00000    0.01882
2070.50000    0.01798
2071.00000    0.01676
2071.50000    0.01523
2072.00000    0.01344
2072.50000    0.01147
2073.00000    0.00942
2073.50000    0.00736
2074.00000    0.00540
2074.50000    0.00363
2075.00000    0.00213
2075.50000    0.00098
2076.00000    0.00025
2076.50000   -0.00002
2077.00000    0.00021
2077.50000    0.00093
2078.00000    0.00214
2078.50000    0.00380
2079.00000    0.00584
2079.50000    0.00821
2080.00000    0.01080
2080.50000    0.01352
2081.00000    0.01626
2081.50000    0.01891
2082.00000    0.02137
2082.50000    0.02354
2083.00000    0.02534
2083.50000    0.02672
2084.00000    0.02762
2084.50000    0.02802
2085.00000    0.02791
2085.50000    0.02731
2086.00000    0.02626
2086.50000    0.02479
2087.00000    0.02295
2087.50000    0.02081
2088.00000    0.01842
2088.50000    0.01583
2089.00000    0.01309
2089.50000    0.01025
2090.00000    0.00731
2090.50000    0.00429
2091.00000    0.00120
2091.50000   -0.00198
2092.00000   -0.00526
2092.50000   -0.00867
2093.00000   -0.01221
2093.50000   -0.01591
2094.00000   -0.01977
2094.50000   -0.02377
2095.00000   -0.02789
2095.50000   -0.03209
2096.00000   -0.03632
2096.50000   -0.04049
2097.00000   -0.04452
2097.50000   -0.04830
2098.00000   -0.05174
2098.50000   -0.05472
2099.00000   -0.05715
2099.50000   -0.05892
2100.00000   -0.05998
2100.50000   -0.06026
2101.00000   -0.05974
2101.50000   -0.05840
2102.00000   -0.05629
2102.50000   -0.05343
2103.00000   -0.04992
2103.50000   -0.04584
2104.00000   -0.04129
2104.50000   -0.03640
2105.00000   -0.03129
2105.50000   -0.02608
2106.00000   -0.02088
2106.50000   -0.01579
2107.00000   -0.01088
2107.50000   -0.00622
2108.00000   -0.00185
2108.50000    0.00220
2109.00000    0.00594
2109.50000    0.00938
2110.00000    0.01255
2110.50000    0.01546
2111.00000    0.01817
2111.50000    0.02069
2112.00000    0.02306
2112.50000    0.02528
2113.00000    0.02736
2113.50000    0.02929
2114.00000    0.03105
2114.50000    0.03260
2115.00000    0.03390
2115.50000    0.03491
2116.00000    0.03559
2116.50000    0.03590
2117.00000    0.03582
2117.50000    0.03533
2118.00000    0.03443
2118.50000    0.03315
2119.00000    0.03153
2119.50000    0.02963
2120.00000    0.02752
2120.50000    0.02529
2121.00000    0.02305
2121.50000    0.02087
2122.00000    0.01887
2122.50000    0.01711
2123.00000    0.01568
2123.50000    0.01462
2124.00000    0.01396
2124.50000    0.01370
2125.00000    0.01382
2125.50000    0.01427
2126.00000    0.01497
2126.50000    0.01583
2127.00000    0.01675
2127.50000    0.01762
2128.00000    0.01832
2128.50000    0.01873
2129.00000    0.01875
2129.50000    0.01830
2130.00000    0.01730
2130.50000    0.01572
2131.00000    0.01353
2131.50000    0.01075
2132.00000    0.00741
2132.50000    0.00356
2133.00000   -0.00071
2133.50000   -0.00530
2134.00000   -0.01011
2134.50000   -0.01501
2135.00000   -0.01987
2135.50000   -0.02459
2136.00000   -0.02902
2136.50000   -0.03308
2137.00000   -0.03666
2137.50000   -0.03968
2138.00000   -0.04208
2138.50000   -0.04380
2139.00000   -0.04482
2139.50000   -0.04512
2140.00000   -0.04470
2140.50000   -0.04358
2141.00000   -0.04179
2141.50000   -0.03937
2142.00000   -0.03638
2142.50000   -0.03287
2143.00000   -0.02893
2143.50000   -0.02462
2144.00000   -0.02003
2144.50000   -0.01525
2145.00000   -0.01036
2145.50000   -0.00545
2146.00000   -0.00061
2146.50000    0.00408
2147.00000    0.00854
2147.50000    0.01271
2148.00000    0.01651
2148.50000    0.01990
2149.00000    0.02283
2149.50000    0.02528
2150.00000    0.02723
2150.50000    0.02868
2151.00000    0.02963
2151.50000    0.03011
2152.00000    0.03015
2152.50000    0.02979
2153.00000    0.02908
2153.50000    0.02806
2154.00000    0.02681
2154.50000    0.02537
2155.00000    0.02380
2155.50000    0.02217
2156.00000    0.02052
2156.50000    0.01891
2157.00000    0.01738
2157.50000    0.01597
2158.00000    0.01471
2158.50000    0.01363
2159.00000    0.01275
2159.50000    0.01207
2160.00000    0.01160
2160.50000    0.01133
2161.00000    0.01125
2161.50000    0.01133
2162.00000    0.01155
2162.50000    0.01185
2163.00000    0.01219
2163.50000    0.01252
2164.00000    0.01278
2164.50000    0.01290
2165.00000    0.01283
2165.50000    0.01250
2166.00000    0.01185
2166.50000    0.01084
2167.00000    0.00944
2167.50000    0.00763
2168.00000    0.00541
2168.50000    0.00278
2169.00000   -0.00020
2169.50000   -0.00348
2170.00000   -0.00698
2170.50000   -0.01062
2171.00000   -0.01427
2171.50000   -0.01781
2172.00000   -0.02113
2172.50000   -0.02409
2173.00000   -0.02656
2173.50000   -0.02844
2174.00000   -0.02961
2174.50000   -0.03001
2175.00000   -0.02957
2175.50000   -0.02825
2176.00000   -0.02604
2176.50000   -0.02297
2177.00000   -0.01907
2177.50000   -0.01442
2178.00000   -0.00909
2178.50000   -0.00320
2179.00000    0.00314
2179.50000    0.00979
2180.00000    0.01663
2180.50000    0.02352
2181.00000    0.03032
2181.50000    0.03691
2182.00000    0.04316
2182.50000    0.04896
2183.00000    0.05421
2183.50000    0.05882
2184.00000    0.06271
2184.50000    0.06580
2185.00000    0.06804
2185.50000    0.06940
2186.00000    0.06982
2186.50000    0.06930
2187.00000    0.06782
2187.50000    0.06540
2188.00000    0.06203
2188.50000    0.05777
2189.00000    0.05264
2189.50000    0.04672
2190.00000    0.04006
2190.50000    0.03276
2191.00000    0.02491
2191.50000    0.01661
2192.00000    0.00797
2192.50000   -0.00088
2193.00000   -0.00983
2193.50000   -0.01875
2194.00000   -0.02753
2194.50000   -0.03606
2195.00000   -0.04424
2195.50000   -0.05197
2196.00000   -0.05916
2196.50000   -0.06577
2197.00000   -0.07171
2197.50000   -0.07695
2198.00000   -0.08147
2198.50000   -0.08522
2199.00000   -0.08821
2199.50000   -0.09042
2200.00000   -0.09185
2200.50000   -0.09252
2201.00000   -0.09243
2201.50000   -0.09160
2202.00000   -0.09006
2202.50000   -0.08781
2203.00000   -0.08491
2203.50000   -0.08138
2204.00000   -0.07728
2204.50000   -0.07267
2205.00000   -0.06760
2205.50000   -0.06217
2206.00000   -0.05647
2206.50000   -0.05058
2207.00000   -0.04463
2207.50000   -0.03873
2208.00000   -0.03299
2208.50000   -0.02752
2209.00000   -0.02245
2209.50000   -0.01785
2210.00000   -0.01382
2210.50000   -0.01042
2211.00000   -0.00769
2211.50000   -0.00565
2212.00000   -0.00427
2212.50000   -0.00352
2213.00000   -0.00333
2213.50000   -0.00360
2214.00000   -0.00423
2214.50000   -0.00509
2215.00000   -0.00603
2215.50000   -0.00692
2216.00000   -0.00761
2216.50000   -0.00797
2217.00000   -0.00789
2217.50000   -0.00726
2218.00000   -0.00602
2218.50000   -0.00412
2219.00000   -0.00154
2219.50000    0.00171
2220.00000    0.00558
2220.50000    0.01002
2221.00000    0.01494
2221.50000    0.02025
2222.00000    0.02583
2222.50000    0.03156
2223.00000    0.03731
2223.50000    0.04296
2224.00000    0.04840
2224.50000    0.05351
2225.00000    0.05819
2225.50000    0.06234
2226.00000    0.06589
2226.50000    0.06878
2227.00000    0.07093
2227.50000    0.07232
2228.00000    0.07292
2228.50000    0.07271
2229.00000    0.07168
2229.50000    0.06986
2230.00000    0.06727
2230.50000    0.06396
2231.00000    0.05998
2231.50000    0.05541
2232.00000    0.05033
2232.50000    0.04486
2233.00000    0.03911
2233.50000    0.03319
2234.00000    0.02725
2234.50000    0.02141
2235.00000    0.01580
2235.50000    0.01054
2236.00000    0.00572
2236.50000    0.00144
2237.00000   -0.00224
2237.50000   -0.00529
2238.00000   -0.00769
2238.50000   -0.00947
2239.00000   -0.01067
2239.50000   -0.01135
2240.00000   -0.01161
2240.50000   -0.01154
2241.00000   -0.01126
2241.50000   -0.01087
2242.00000   -0.01049
2242.50000   -0.01019
2243.00000   -0.01007
2243.50000   -0.01017
2244.00000   -0.01052
2244.50000   -0.01115
2245.00000   -0.01202
2245.50000   -0.01312
2246.00000   -0.01438
2246.50000   -0.01574
2247.00000   -0.01713
2247.50000   -0.01849
2248.00000   -0.01974
2248.50000   -0.02084
2249.00000   -0.02173
2249.50000   -0.02241
2250.00000   -0.02286
2250.50000   -0.02309
2251.00000   -0.02313
2251.50000   -0.02302
2252.00000   -0.02279
2252.50000   -0.02250
2253.00000   -0.02220
2253.50000   -0.02192
2254.00000   -0.02168
2254.50000   -0.02151
2255.00000   -0.02139
2255.50000   -0.02132
2256.00000   -0.02126
2256.50000   -0.02115
2257.00000   -0.02096
2257.50000   -0.02061
2258.00000   -0.02004
2258.50000   -0.01920
2259.00000   -0.01804
2259.50000   -0.01652
2260.00000   -0.01463
2260.50000   -0.01236
2261.00000   -0.00972
2261.50000   -0.00675
2262.00000   -0.00349
2262.50000   -0.00000
2263.00000    0.00365
2263.50000    0.00739
2264.00000    0.01115
2264.50000    0.01486
2265.00000    0.01846
2265.50000    0.02191
2266.00000    0.02515
2266.50000    0.02816
2267.00000    0.03093
2267.50000    0.03343
2268.00000    0.03568
2268.50000    0.03766
2269.00000    0.03939
2269.50000    0.04087
2270.00000    0.04209
2270.50000    0.04305
2271.00000    0.04374
2271.50000    0.04413
2272.00000    0.04420
2272.50000    0.04390
2273.00000    0.04322
2273.50000    0.04210
2274.00000    0.04052
2274.50000    0.03845
2275.00000    0.03587
2275.50000    0.03278
2276.00000    0.02918
2276.50000    0.02510
2277.00000    0.02058
2277.50000    0.01569
2278.00000    0.01047
2278.50000    0.00503
2279.00000   -0.00054
2279.50000   -0.00616
2280.00000   -0.01171
2280.50000   -0.01711
2281.00000   -0.02225
2281.50000   -0.02705
2282.00000   -0.03144
2282.50000   -0.03537
2283.00000   -0.03878
2283.50000   -0.04165
2284.00000   -0.04396
2284.50000   -0.04573
2285.00000   -0.04696
2285.50000   -0.04770
2286.00000   -0.04796
2286.50000   -0.04781
2287.00000   -0.04728
2287.50000   -0.04642
2288.00000   -0.04530
2288.50000   -0.04394
2289.00000   -0.04239
2289.50000   -0.04068
2290.00000   -0.03885
2290.50000   -0.03691
2291.00000   -0.03488
2291.50000   -0.03276
2292.00000   -0.03058
2292.50000   -0.02832
2293.00000   -0.02599
2293.50000   -0.02359
2294.00000   -0.02112
2294.50000   -0.01859
2295.00000   -0.01600
2295.50000   -0.01337
2296.00000   -0.01071
2296.50000   -0.00804
2297.00000   -0.00537
2297.50000   -0.00273
2298.00000   -0.00013
2298.50000    0.00239
2299.00000    0.00484
2299.50000    0.00718
2300.00000    0.00941
2300.50000    0.01153
2301.00000    0.01354
2301.50000    0.01543
2302.00000    0.01723
2302.50000    0.01896
2303.00000    0.02063
2303.50000    0.02227
2304.00000    0.02390
2304.50000    0.02556
2305.00000    0.02726
2305.50000    0.02903
2306.00000    0.03089
2306.50000    0.03284
2307.00000    0.03490
2307.50000    0.03704
2308.00000    0.03926
2308.50000    0.04153
2309.00000    0.04381
2309.50000    0.04608
2310.00000    0.04827
2310.50000    0.05033
2311.00000    0.05220
2311.50000    0.05383
2312.00000    0.05516
2312.50000    0.05612
2313.00000    0.05666
2313.50000    0.05674
2314.00000    0.05632
2314.50000    0.05538
2315.00000    0.05389
2315.50000    0.05186
2316.00000    0.04929
2316.50000    0.04622
2317.00000    0.04266
2317.50000    0.03869
2318.00000    0.03434
2318.50000    0.02970
2319.00000    0.02484
2319.50000    0.01984
2320.00000    0.01479
2320.50000    0.00976
2321.00000    0.00485
2321.50000    0.00012
2322.00000   -0.00435
2322.50000   -0.00851
2323.00000   -0.01232
2323.50000   -0.01575
2324.00000   -0.01878
2324.50000   -0.02141
2325.00000   -0.02366
2325.50000   -0.02557
2326.00000   -0.02718
2326.50000   -0.02854
2327.00000   -0.02972
2327.50000   -0.03079
2328.00000   -0.03180
2328.50000   -0.03284
2329.00000   -0.03396
2329.50000   -0.03521
2330.00000   -0.03662
2330.50000   -0.03823
2331.00000   -0.04002
2331.50000   -0.04199
2332.00000   -0.04411
2332.50000   -0.04633
2333.00000   -0.04859
2333.50000   -0.05082
2334.00000   -0.05295
2334.50000   -0.05489
2335.00000   -0.05657
2335.50000   -0.05793
2336.00000   -0.05890
2336.50000   -0.05944
2337.00000   -0.05952
2337.50000   -0.05915
2338.00000   -0.05834
2338.50000   -0.05711
2339.00000   -0.05553
2339.50000   -0.05365
2340.00000   -0.05155
2340.50000   -0.04931
2341.00000   -0.04702
2341.50000   -0.04473
2342.00000   -0.04252
2342.50000   -0.04042
2343.00000   -0.03847
2343.50000   -0.03667
2344.00000   -0.03500
2344.50000   -0.03342
2345.00000   -0.03187
2345.50000   -0.03027
2346.00000   -0.02853
2346.50000   -0.02656
2347.00000   -0.02425
2347.50000   -0.02152
2348.00000   -0.01829
2348.50000   -0.01450
2349.00000   -0.01011
2349.50000   -0.00512
2350.00000    0.00044
2350.50000    0.00652
2351.00000    0.01304
2351.50000    0.01988
2352.00000    0.02690
2352.50000    0.03394
2353.00000    0.04085
2353.50000    0.04743
2354.00000    0.05353
2354.50000    0.05897
2355.00000    0.06362
2355.50000    0.06734
2356.00000    0.07004
2356.50000    0.07165
2357.00000    0.07214
2357.50000    0.07152
2358.00000    0.06981
2358.50000    0.06709
2359.00000    0.06345
2359.50000    0.05903
2360.00000    0.05395
2360.50000    0.04838
2361.00000    0.04249
2361.50000    0.03644
2362.00000    0.03042
2362.50000    0.02459
2363.00000    0.01909
2363.50000    0.01408
2364.00000    0.00966
2364.50000    0.00595
2365.00000    0.00303
2365.50000    0.00094
2366.00000   -0.00026
2366.50000   -0.00057
2367.00000   -0.00000
2367.50000    0.00142
2368.00000    0.00366
2368.50000    0.00663
2369.00000    0.01027
2369.50000    0.01447
2370.00000    0.01914
2370.50000    0.02416
2371.00000    0.02941
2371.50000    0.03477
2372.00000    0.04010
2372.50000    0.04529
2373.00000    0.05021
2373.50000    0.05474
2374.00000    0.05877
2374.50000    0.06219
2375.00000    0.06490
2375.50000    0.06681
2376.00000    0.06787
2376.50000    0.06799
2377.00000    0.06715
2377.50000    0.06531
2378.00000    0.06246
2378.50000    0.05859
2379.00000    0.05374
2379.50000    0.04793
2380.00000    0.04123
2380.50000    0.03370
2381.00000    0.02542
2381.50000    0.01651
2382.00000    0.00708
2382.50000   -0.00275
2383.00000   -0.01283
2383.50000   -0.02302
2384.00000   -0.03316
2384.50000   -0.04310
2385.00000   -0.05267
2385.50000   -0.06173
2386.00000   -0.07013
2386.50000   -0.07772
2387.00000   -0.08439
2387.50000   -0.09001
2388.00000   -0.09450
2388.50000   -0.09778
2389.00000   -0.09980
2389.50000   -0.10054
2390.00000   -0.09999
2390.50000   -0.09819
2391.00000   -0.09517
2391.50000   -0.09100
2392.00000   -0.08579
2392.50000   -0.07964
2393.00000   -0.07269
2393.50000   -0.06508
2394.00000   -0.05698
2394.50000   -0.04854
2395.00000   -0.03994
2395.50000   -0.03135
2396.00000   -0.02294
2396.50000   -0.01487
2397.00000   -0.00728
2397.50000   -0.00031
2398.00000    0.00593
2398.50000    0.01132
2399.00000    0.01581
2399.50000    0.01934
2400.00000    0.02187
2400.50000    0.02342
2401.00000    0.02400
2401.50000    0.02366
2402.00000    0.02246
2402.50000    0.02049
2403.00000    0.01784
2403.50000    0.01464
2404.00000    0.01101
2404.50000    0.00706
2405.00000    0.00293
2405.50000   -0.00126
2406.00000   -0.00538
2406.50000   -0.00934
2407.00000   -0.01301
2407.50000   -0.01633
2408.00000   -0.01921
2408.50000   -0.02158
2409.00000   -0.02341
2409.50000   -0.02465
2410.00000   -0.02530
2410.50000   -0.02533
2411.00000   -0.02477
2411.50000   -0.02362
2412.00000   -0.02193
2412.50000   -0.01973
2413.00000   -0.01708
2413.50000   -0.01405
2414.00000   -0.01071
2414.50000   -0.00715
2415.00000   -0.00347
2415.50000    0.00024
2416.00000    0.00386
2416.50000    0.00728
2417.00000    0.01041
2417.50000    0.01313
2418.00000    0.01536
2418.50000    0.01702
2419.00000    0.01804
2419.50000    0.01839
2420.00000    0.01804
2420.50000    0.01700
2421.00000    0.01530
2421.50000    0.01301
2422.00000    0.01019
2422.50000    0.00695
2423.00000    0.00341
2423.50000   -0.00032
2424.00000   -0.00409
2424.50000   -0.00778
2425.00000   -0.01126
2425.50000   -0.01441
2426.00000   -0.01714
2426.50000   -0.01936
2427.00000   -0.02101
2427.50000   -0.02207
2428.00000   -0.02250
2428.50000   -0.02233
2429.00000   -0.02157
2429.50000   -0.02025
2430.00000   -0.01843
2430.50000   -0.01617
2431.00000   -0.01350
2431.50000   -0.01050
2432.00000   -0.00720
2432.50000   -0.00364
2433.00000    0.00015
2433.50000    0.00414
2434.00000    0.00834
2434.50000    0.01274
2435.00000    0.01735
2435.50000    0.02220
2436.00000    0.02730
2436.50000    0.03266
2437.00000    0.03832
2437.50000    0.04427
2438.00000    0.05055
2438.50000    0.05714
2439.00000    0.06404
2439.50000    0.07125
2440.00000    0.07874
2440.50000    0.08649
2441.00000    0.09446
2441.50000    0.10263
2442.00000    0.11094
2442.50000    0.11937
2443.00000    0.12785
2443.50000    0.13636
2444.00000    0.14485
2444.50000    0.15329
2445.00000    0.16163
2445.50000    0.16984
2446.00000    0.17790
2446.50000    0.18579
2447.00000    0.19347
2447.50000    0.20093
2448.00000    0.20815
2448.50000    0.21511
2449.00000    0.22181
2449.50000    0.22822
2450.00000    0.23432
2450.50000    0.24010
2451.00000    0.24552
2451.50000    0.25057
2452.00000    0.25521
2452.50000    0.25940
2453.00000    0.26311
2453.50000    0.26630
2454.00000    0.26894
2454.50000    0.27100
2455.00000    0.27243
2455.50000    0.27322
2456.00000    0.27335
2456.50000    0.27281
2457.00000    0.27160
2457.50000    0.26973
2458.00000    0.26722
2458.50000    0.26408
2459.00000    0.26035
2459.50000    0.25606
2460.00000    0.25123
2460.50000    0.24590
2461.00000    0.24007
2461.50000    0.23378
2462.00000    0.22701
2462.50000    0.21976
2463.00000    0.21202
2463.50000    0.20377
2464.00000    0.19497
2464.50000    0.18560
2465.00000    0.17564
2465.50000    0.16508
2466.00000    0.15390
2466.50000    0.14212
2467.00000    0.12979
2467.50000    0.11694
2468.00000    0.10369
2468.50000    0.09012
2469.00000    0.07637
2469.50000    0.06260
2470.00000    0.04898
2470.50000    0.03568
2471.00000    0.02289
2471.50000    0.01077
2472.00000   -0.00049
2472.50000   -0.01075
2473.00000   -0.01989
2473.50000   -0.02780
2474.00000   -0.03442
2474.50000   -0.03973
2475.00000   -0.04372
2475.50000   -0.04642
2476.00000   -0.04792
2476.50000   -0.04829
2477.00000   -0.04766
2477.50000   -0.04616
2478.00000   -0.04393
2478.50000   -0.04111
2479.00000   -0.03785
2479.50000   -0.03428
2480.00000   -0.03052
2480.50000   -0.02668
2481.00000   -0.02285
2481.50000   -0.01911
2482.00000   -0.01549
2482.50000   -0.01204
2483.00000   -0.00877
2483.50000   -0.00567
2484.00000   -0.00274
2484.50000    0.00005
2485.00000    0.00272
2485.50000    0.00532
2486.00000    0.00785
2486.50000    0.01037
2487.00000    0.01288
2487.50000    0.01540
2488.00000    0.01796
2488.50000    0.02054
2489.00000    0.02316
2489.50000    0.02580
2490.00000    0.02846
2490.50000    0.03111
2491.00000    0.03375
2491.50000    0.03637
2492.00000    0.03894
2492.50000    0.04147
2493.00000    0.04394
2493.50000    0.04635
2494.00000    0.04871
2494.50000    0.05100
2495.00000    0.05323
2495.50000    0.05541
2496.00000    0.05752
2496.50000    0.05955
2497.00000    0.06149
2497.50000    0.06332
2498.00000    0.06500
2498.50000    0.06648
2499.00000    0.06773
2499.50000    0.06869
2500.00000    0.06928
2500.50000    0.06946
2501.00000    0.06915
2501.50000    0.06829
2502.00000    0.06683
2502.50000    0.06472
2503.00000    0.06192
2503.50000    0.05841
2504.00000    0.05416
2504.50000    0.04919
2505.00000    0.04350
2505.50000    0.03712
2506.00000    0.03011
2506.50000    0.02250
2507.00000    0.01437
2507.50000    0.00580
2508.00000   -0.00315
2508.50000   -0.01237
2509.00000   -0.02176
2509.50000   -0.03123
2510.00000   -0.04066
2510.50000   -0.04993
2511.00000   -0.05894
2511.50000   -0.06755
2512.00000   -0.07565
2512.50000   -0.08311
2513.00000   -0.08981
2513.50000   -0.09564
2514.00000   -0.10049
2514.50000   -0.10427
2515.00000   -0.10691
2515.50000   -0.10834
2516.00000   -0.10852
2516.50000   -0.10744
2517.00000   -0.10511
2517.50000   -0.10157
2518.00000   -0.09687
2518.50000   -0.09110
2519.00000   -0.08436
2519.50000   -0.07676
2520.00000   -0.06845
2520.50000   -0.05955
2521.00000   -0.05022
2521.50000   -0.04059
2522.00000   -0.03080
2522.50000   -0.02098
2523.00000   -0.01125
2523.50000   -0.00172
2524.00000    0.00752
2524.50000    0.01638
2525.00000    0.02479
2525.50000    0.03269
2526.00000    0.04001
2526.50000    0.04671
2527.00000    0.05274
2527.50000    0.05807
2528.00000    0.06264
2528.50000    0.06642
2529.00000    0.06939
2529.50000    0.07153
2530.00000    0.07281
2530.50000    0.07322
2531.00000    0.07279
2531.50000    0.07152
2532.00000    0.06946
2532.50000    0.06666
2533.00000    0.06318
2533.50000    0.05910
2534.00000    0.05453
2534.50000    0.04956
2535.00000    0.04431
2535.50000    0.03888
2536.00000    0.03340
2536.50000    0.02798
2537.00000    0.02271
2537.50000    0.01769
2538.00000    0.01300
2538.50000    0.00871
2539.00000    0.00487
2539.50000    0.00150
2540.00000   -0.00135
2540.50000   -0.00369
2541.00000   -0.00553
2541.50000   -0.00686
2542.00000   -0.00773
2542.50000   -0.00817
2543.00000   -0.00821
2543.50000   -0.00791
2544.00000   -0.00732
2544.50000   -0.00650
2545.00000   -0.00551
2545.50000   -0.00442
2546.00000   -0.00329
2546.50000   -0.00220
2547.00000   -0.00121
2547.50000   -0.00039
2548.00000    0.00019
2548.50000    0.00049
2549.00000    0.00044
2549.50000    0.00002
2550.00000   -0.00081
2550.50000   -0.00205
2551.00000   -0.00371
2551.50000   -0.00575
2552.00000   -0.00814
2552.50000   -0.01084
2553.00000   -0.01378
2553.50000   -0.01687
2554.00000   -0.02004
2554.50000   -0.02319
2555.00000   -0.02623
2555.50000   -0.02908
2556.00000   -0.03163
2556.50000   -0.03383
2557.00000   -0.03560
2557.50000   -0.03689
2558.00000   -0.03766
2558.50000   -0.03790
2559.00000   -0.03761
2559.50000   -0.03679
2560.00000   -0.03548
2560.50000   -0.03372
2561.00000   -0.03158
2561.50000   -0.02913
2562.00000   -0.02643
2562.50000   -0.02357
2563.00000   -0.02065
2563.50000   -0.01774
2564.00000   -0.01493
2564.50000   -0.01229
2565.00000   -0.00990
2565.50000   -0.00781
2566.00000   -0.00607
2566.50000   -0.00473
2567.00000   -0.00379
2567.50000   -0.00327
2568.00000   -0.00316
2568.50000   -0.00344
2569.00000   -0.00408
2569.50000   -0.00503
2570.00000   -0.00624
2570.50000   -0.00765
2571.00000   -0.00919
2571.50000   -0.01079
2572.00000   -0.01238
2572.50000   -0.01390
2573.00000   -0.01527
2573.50000   -0.01646
2574.00000   -0.01739
2574.50000   -0.01805
2575.00000   -0.01838
2575.50000   -0.01838
2576.00000   -0.01803
2576.50000   -0.01734
2577.00000   -0.01629
2577.50000   -0.01492
2578.00000   -0.01324
2578.50000   -0.01128
2579.00000   -0.00907
2579.50000   -0.00664
2580.00000   -0.00403
2580.50000   -0.00128
2581.00000    0.00157
2581.50000    0.00448
2582.00000    0.00740
2582.50000    0.01029
2583.00000    0.01310
2583.50000    0.01580
2584.00000    0.01832
2584.50000    0.02064
2585.00000    0.02270
2585.50000    0.02446
2586.00000    0.02588
2586.50000    0.02691
2587.00000    0.02754
2587.50000    0.02772
2588.00000    0.02743
2588.50000    0.02664
2589.00000    0.02536
2589.50000    0.02356
2590.00000    0.02126
2590.50000    0.01845
2591.00000    0.01517
2591.50000    0.01142
2592.00000    0.00726
2592.50000    0.00271
2593.00000   -0.00215
2593.50000   -0.00728
2594.00000   -0.01259
2594.50000   -0.01801
2595.00000   -0.02344
2595.50000   -0.02879
2596.00000   -0.03394
2596.50000   -0.03880
2597.00000   -0.04325
2597.50000   -0.04718
2598.00000   -0.05050
2598.50000   -0.05312
2599.00000   -0.05495
2599.50000   -0.05592
2600.00000   -0.05601
2600.50000   -0.05520
2601.00000   -0.05348
2601.50000   -0.05088
2602.00000   -0.04748
2602.50000   -0.04334
2603.00000   -0.03857
2603.50000   -0.03329
2604.00000   -0.02763
2604.50000   -0.02172
2605.00000   -0.01572
2605.50000   -0.00974
2606.00000   -0.00392
2606.50000    0.00165
2607.00000    0.00687
2607.50000    0.01168
2608.00000    0.01605
2608.50000    0.01997
2609.00000    0.02346
2609.50000    0.02656
2610.00000    0.02933
2610.50000    0.03185
2611.00000    0.03421
2611.50000    0.03651
2612.00000    0.03885
2612.50000    0.04133
2613.00000    0.04403
2613.50000    0.04704
2614.00000    0.05042
2614.50000    0.05421
2615.00000    0.05846
2615.50000    0.06317
2616.00000    0.06834
2616.50000    0.07396
2617.00000    0.08000
2617.50000    0.08641
2618.00000    0.09315
2618.50000    0.10016
2619.00000    0.10740
2619.50000    0.11479
2620.00000    0.12230
2620.50000    0.12986
2621.00000    0.13743
2621.50000    0.14498
2622.00000    0.15246
2622.50000    0.15988
2623.00000    0.16720
2623.50000    0.17442
2624.00000    0.18156
2624.50000    0.18861
2625.00000    0.19561
2625.50000    0.20256
2626.00000    0.20949
2626.50000    0.21644
2627.00000    0.22343
2627.50000    0.23048
2628.00000    0.23761
2628.50000    0.24484
2629.00000    0.25219
2629.50000    0.25966
2630.00000    0.26724
2630.50000    0.27495
2631.00000    0.28278
2631.50000    0.29071
2632.00000    0.29876
2632.50000    0.30691
2633.00000    0.31518
2633.50000    0.32358
2634.00000    0.33213
2634.50000    0.34087
2635.00000    0.34986
2635.50000    0.35914
2636.00000    0.36879
2636.50000    0.37890
2637.00000    0.38956
2637.50000    0.40087
2638.00000    0.41295
2638.50000    0.42592
2639.00000    0.43991
2639.50000    0.45506
2640.00000    0.47151
2640.50000    0.48942
2641.00000    0.50896
2641.50000    0.53030
2642.00000    0.55365
2642.50000    0.57921
2643.00000    0.60721
2643.50000    0.63790
2644.00000    0.67153
2644.50000    0.70838
2645.00000    0.74872
2645.50000    0.79285
2646.00000    0.84105
2646.50000    0.89359
2647.00000    0.95076
2647.50000    1.01280
2648.00000    1.07995
2648.50000    1.15241
2649.00000    1.23038
2649.50000    1.31399
2650.00000    1.40337
2650.50000    1.49862
2651.00000    1.59981
2651.50000    1.70698
2652.00000    1.82017
2652.50000    1.93940
2653.00000    2.06467
2653.50000    2.19599
2654.00000    2.33335
2654.50000    2.47676
2655.00000    2.62619
2655.50000    2.78164
2656.00000    2.94308
2656.50000    3.11045
2657.00000    3.28371
2657.50000    3.46277
2658.00000    3.64749
2658.50000    3.83774
2659.00000    4.03332
2659.50000    4.23399
2660.00000    4.43948
2660.50000    4.64944
2661.00000    4.86352
2661.50000    5.08129
2662.00000    5.30229
2662.50000    5.52603
2663.00000    5.75196
2663.50000    5.97952
2664.00000    6.20810
2664.50000    6.43707
2665.00000    6.66575
2665.50000    6.89344
2666.00000    7.11943
2666.50000    7.34294
2667.00000    7.56318
2667.50000    7.77934
2668.00000    7.99055
2668.50000    8.19595
2669.00000    8.39464
2669.50000    8.58570
2670.00000    8.76822
2670.50000    8.94127
2671.00000    9.10395
2671.50000    9.25538
2672.00000    9.39472
2672.50000    9.52118
2673.00000    9.63403
2673.50000    9.73262
2674.00000    9.81638
2674.50000    9.88485
2675.00000    9.93765
2675.50000    9.97452
2676.00000    9.99532
2676.50000   10.00000
2677.00000    9.98864
2677.50000    9.96140
2678.00000    9.91858
2678.50000    9.86053
2679.00000    9.78772
2679.50000    9.70068
2680.00000    9.60000
2680.50000    9.48635
2681.00000    9.36042
2681.50000    9.22295
2682.00000    9.07473
2682.50000    8.91653
2683.00000    8.74916
2683.50000    8.57343
2684.00000    8.39015
2684.50000    8.20012
2685.00000    8.00413
2685.50000    7.80295
2686.00000    7.59733
2686.50000    7.38802
2687.00000    7.17571
2687.50000    6.96111
2688.00000    6.74487
2688.50000    6.52765
2689.00000    6.31005
2689.50000    6.09268
2690.00000    5.87612
2690.50000    5.66091
2691.00000    5.44758
2691.50000    5.23666
2692.00000    5.02861
2692.50000    4.82390
2693.00000    4.62295
2693.50000    4.42617
2694.00000    4.23392
2694.50000    4.04652
2695.00000    3.86428
2695.50000    3.68745
2696.00000    3.51623
2696.50000    3.35079
2697.00000    3.19127
2697.50000    3.03774
2698.00000    2.89027
2698.50000    2.74884
2699.00000    2.61345
2699.50000    2.48404
2700.00000    2.36053
2700.50000    2.24281
2701.00000    2.13076
2701.50000    2.02426
2702.00000    1.92315
2702.50000    1.82729
2703.00000    1.73653
2703.50000    1.65071
2704.00000    1.56967
2704.50000    1.49326
2705.00000    1.42133
2705.50000    1.35372
2706.00000    1.29026
2706.50000    1.23078
2707.00000    1.17513
2707.50000    1.12310
2708.00000    1.07451
2708.50000    1.02914
2709.00000    0.98679
2709.50000    0.94720
2710.00000    0.91014
2710.50000    0.87534
2711.00000    0.84254
2711.50000    0.81148
2712.00000    0.78188
2712.50000    0.75349
2713.00000    0.72606
2713.50000    0.69935
2714.00000    0.67317
2714.50000    0.64732
2715.00000    0.62168
2715.50000    0.59612
2716.00000    0.57057
2716.50000    0.54499
2717.00000    0.51938
2717.50000    0.49377
2718.00000    0.46822
2718.50000    0.44280
2719.00000    0.41762
2719.50000    0.39277
2720.00000    0.36839
2720.50000    0.34459
2721.00000    0.32146
2721.50000    0.29912
2722.00000    0.27765
2722.50000    0.25712
2723.00000    0.23759
2723.50000    0.21910
2724.00000    0.20168
2724.50000    0.18533
2725.00000    0.17007
2725.50000    0.15589
2726.00000    0.14278
2726.50000    0.13073
2727.00000    0.11972
2727.50000    0.10973
2728.00000    0.10074
2728.50000    0.09273
2729.00000    0.08567
2729.50000    0.07954
2730.00000    0.07429
2730.50000    0.06988
2731.00000    0.06625
2731.50000    0.06335
2732.00000    0.06109
2732.50000    0.05938
2733.00000    0.05814
2733.50000    0.05726
2734.00000    0.05663
2734.50000    0.05615
2735.00000    0.05570
2735.50000    0.05518
2736.00000    0.05450
2736.50000    0.05356
2737.00000    0.05229
2737.50000    0.05062
2738.00000    0.04851
2738.50000    0.04591
2739.00000    0.04281
2739.50000    0.03920
2740.00000    0.03508
2740.50000    0.03048
2741.00000    0.02542
2741.50000    0.01994
2742.00000    0.01410
2742.50000    0.00794
2743.00000    0.00154
2743.50000   -0.00503
2744.00000   -0.01171
2744.50000   -0.01840
2745.00000   -0.02504
2745.50000   -0.03153
2746.00000   -0.03780
2746.50000   -0.04376
2747.00000   -0.04935
2747.50000   -0.05449
2748.00000   -0.05913
2748.50000   -0.06321
2749.00000   -0.06671
2749.50000   -0.06959
2750.00000   -0.07186
2750.50000   -0.07352
2751.00000   -0.07458
2751.50000   -0.07508
2752.00000   -0.07506
2752.50000   -0.07456
2753.00000   -0.07364
2753.50000   -0.07234
2754.00000   -0.07073
2754.50000   -0.06885
2755.00000   -0.06674
2755.50000   -0.06443
2756.00000   -0.06195
2756.50000   -0.05931
2757.00000   -0.05651
2757.50000   -0.05355
2758.00000   -0.05043
2758.50000   -0.04711
2759.00000   -0.04360
2759.50000   -0.03987
2760.00000   -0.03592
2760.50000   -0.03174
2761.00000   -0.02734
2761.50000   -0.02274
2762.00000   -0.01796
2762.50000   -0.01306
2763.00000   -0.00808
2763.50000   -0.00310
2764.00000    0.00182
2764.50000    0.00660
2765.00000    0.01114
2765.50000    0.01537
2766.00000    0.01921
2766.50000    0.02259
2767.00000    0.02544
2767.50000    0.02771
2768.00000    0.02938
2768.50000    0.03044
2769.00000    0.03087
2769.50000    0.03071
2770.00000    0.03000
2770.50000    0.02879
2771.00000    0.02717
2771.50000    0.02521
2772.00000    0.02301
2772.50000    0.02067
2773.00000    0.01830
2773.50000    0.01599
2774.00000    0.01384
2774.50000    0.01192
2775.00000    0.01031
2775.50000    0.00905
2776.00000    0.00818
2776.50000    0.00770
2777.00000    0.00761
2777.50000    0.00787
2778.00000    0.00843
2778.50000    0.00923
2779.00000    0.01018
2779.50000    0.01119
2780.00000    0.01217
2780.50000    0.01301
2781.00000    0.01363
2781.50000    0.01392
2782.00000    0.01383
2782.50000    0.01328
2783.00000    0.01224
2783.50000    0.01067
2784.00000    0.00858
2784.50000    0.00598
2785.00000    0.00290
2785.50000   -0.00058
2786.00000   -0.00442
2786.50000   -0.00851
2787.00000   -0.01276
2787.50000   -0.01708
2788.00000   -0.02136
2788.50000   -0.02550
2789.00000   -0.02939
2789.50000   -0.03295
2790.00000   -0.03609
2790.50000   -0.03874
2791.00000   -0.04084
2791.50000   -0.04237
2792.00000   -0.04328
2792.50000   -0.04359
2793.00000   -0.04330
2793.50000   -0.04243
2794.00000   -0.04102
2794.50000   -0.03913
2795.00000   -0.03681
2795.50000   -0.03414
2796.00000   -0.03119
2796.50000   -0.02801
2797.00000   -0.02469
2797.50000   -0.02128
2798.00000   -0.01783
2798.50000   -0.01438
2799.00000   -0.01096
2799.50000   -0.00757
2800.00000   -0.00422
2800.50000   -0.00089
2801.00000    0.00246
2801.50000    0.00585
2802.00000    0.00932
2802.50000    0.01292
2803.00000    0.01669
2803.50000    0.02065
2804.00000    0.02482
2804.50000    0.02921
2805.00000    0.03380
2805.50000    0.03854
2806.00000    0.04339
2806.50000    0.04827
2807.00000    0.05308
2807.50000    0.05772
2808.00000    0.06207
2808.50000    0.06601
2809.00000    0.06944
2809.50000    0.07223
2810.00000    0.07430
2810.50000    0.07557
2811.00000    0.07599
2811.50000    0.07553
2812.00000    0.07418
2812.50000    0.07198
2813.00000    0.06898
2813.50000    0.06525
2814.00000    0.06089
2814.50000    0.05601
2815.00000    0.05073
2815.50000    0.04519
2816.00000    0.03951
2816.50000    0.03382
2817.00000    0.02825
2817.50000    0.02290
2818.00000    0.01787
2818.50000    0.01326
2819.00000    0.00912
2819.50000    0.00551
2820.00000    0.00246
2820.50000    0.00001
2821.00000   -0.00186
2821.50000   -0.00315
2822.00000   -0.00388
2822.50000   -0.00408
2823.00000   -0.00383
2823.50000   -0.00316
2824.00000   -0.00217
2824.50000   -0.00093
2825.00000    0.00045
2825.50000    0.00188
2826.00000    0.00325
2826.50000    0.00445
2827.00000    0.00537
2827.50000    0.00592
2828.00000    0.00599
2828.50000    0.00551
2829.00000    0.00442
2829.50000    0.00268
2830.00000    0.00028
2830.50000   -0.00279
2831.00000   -0.00649
2831.50000   -0.01077
2832.00000   -0.01555
2832.50000   -0.02073
2833.00000   -0.02621
2833.50000   -0.03187
2834.00000   -0.03759
2834.50000   -0.04325
2835.00000   -0.04871
2835.50000   -0.05389
2836.00000   -0.05868
2836.50000   -0.06301
2837.00000   -0.06681
2837.50000   -0.07004
2838.00000   -0.07268
2838.50000   -0.07471
2839.00000   -0.07615
2839.50000   -0.07700
2840.00000   -0.07729
2840.50000   -0.07705
2841.00000   -0.07631
2841.50000   -0.07509
2842.00000   -0.07343
2842.50000   -0.07136
2843.00000   -0.06888
2843.50000   -0.06602
2844.00000   -0.06278
2844.50000   -0.05919
2845.00000   -0.05526
2845.50000   -0.05098
2846.00000   -0.04639
2846.50000   -0.04150
2847.00000   -0.03634
2847.50000   -0.03095
2848.00000   -0.02536
2848.50000   -0.01963
2849.00000   -0.01383
2849.50000   -0.00800
2850.00000   -0.00223
2850.50000    0.00340
2851.00000    0.00881
2851.50000    0.01393
2852.00000    0.01868
2852.50000    0.02297
2853.00000    0.02674
2853.50000    0.02993
2854.00000    0.03249
2854.50000    0.03438
2855.00000    0.03558
2855.50000    0.03609
2856.00000    0.03592
2856.50000    0.03509
2857.00000    0.03366
2857.50000    0.03170
2858.00000    0.02927
2858.50000    0.02648
2859.00000    0.02342
2859.50000    0.02021
2860.00000    0.01695
2860.50000    0.01376
2861.00000    0.01074
2861.50000    0.00799
2862.00000    0.00559
2862.50000    0.00361
2863.00000    0.00210
2863.50000    0.00110
2864.00000    0.00061
2864.50000    0.00063
2865.00000    0.00115
2865.50000    0.00211
2866.00000    0.00346
2866.50000    0.00515
2867.00000    0.00708
2867.50000    0.00919
2868.00000    0.01140
2868.50000    0.01362
2869.00000    0.01577
2869.50000    0.01779
2870.00000    0.01961
2870.50000    0.02117
2871.00000    0.02243
2871.50000    0.02336
2872.00000    0.02394
2872.50000    0.02415
2873.00000    0.02401
2873.50000    0.02354
2874.00000    0.02276
2874.50000    0.02172
2875.00000    0.02048
2875.50000    0.01910
2876.00000    0.01767
2876.50000    0.01626
2877.00000    0.01497
2877.50000    0.01389
2878.00000    0.01310
2878.50000    0.01269
2879.00000    0.01273
2879.50000    0.01329
2880.00000    0.01440
2880.50000    0.01609
2881.00000    0.01836
2881.50000    0.02118
2882.00000    0.02450
2882.50000    0.02825
2883.00000    0.03232
2883.50000    0.03659
2884.00000    0.04092
2884.50000    0.04515
2885.00000    0.04913
2885.50000    0.05270
2886.00000    0.05569
2886.50000    0.05795
2887.00000    0.05936
2887.50000    0.05981
2888.00000    0.05922
2888.50000    0.05751
2889.00000    0.05467
2889.50000    0.05070
2890.00000    0.04563
2890.50000    0.03951
2891.00000    0.03243
2891.50000    0.02449
2892.00000    0.01580
2892.50000    0.00648
2893.00000   -0.00334
2893.50000   -0.01354
2894.00000   -0.02400
2894.50000   -0.03461
2895.00000   -0.04528
2895.50000   -0.05594
2896.00000   -0.06653
2896.50000   -0.07702
2897.00000   -0.08738
2897.50000   -0.09762
2898.00000   -0.10776
2898.50000   -0.11782
2899.00000   -0.12784
2899.50000   -0.13783
