1200.50000   -0.12588
1201.00000   -0.11252
1201.50000   -0.09918
1202.00000   -0.08590
1202.50000   -0.07271
1203.00000   -0.05966
1203.50000   -0.04682
1204.00000   -0.03424
1204.50000   -0.02201
1205.00000   -0.01020
1205.50000    0.00110
1206.00000    0.01181
1206.50000    0.02185
1207.00000    0.03113
1207.50000    0.03959
1208.00000    0.04716
1208.50000    0.05379
1209.00000    0.05943
1209.50000    0.06405
1210.00000    0.06763
1210.50000    0.07017
1211.00000    0.07169
1211.50000    0.07219
1212.00000    0.07173
1212.50000    0.07035
1213.00000    0.06810
1213.50000    0.06507
1214.00000    0.06132
1214.50000    0.05695
1215.00000    0.05205
1215.50000    0.04672
1216.00000    0.04105
1216.50000    0.03516
1217.00000    0.02914
1217.50000    0.02309
1218.00000    0.01711
1218.50000    0.01130
1219.00000    0.00575
1219.50000    0.00055
1220.00000   -0.00425
1220.50000   -0.00856
1221.00000   -0.01233
1221.50000   -0.01553
1222.00000   -0.01811
1222.50000   -0.02007
1223.00000   -0.02139
1223.50000   -0.02208
1224.00000   -0.02216
1224.50000   -0.02167
1225.00000   -0.02065
1225.50000   -0.01915
1226.00000   -0.01723
1226.50000   -0.01498
1227.00000   -0.01247
1227.50000   -0.00977
1228.00000   -0.00697
1228.50000   -0.00416
1229.00000   -0.00140
1229.50000    0.00121
1230.00000    0.00363
1230.50000    0.00579
1231.00000    0.00763
1231.50000    0.00913
1232.00000    0.01025
1232.50000    0.01099
1233.00000    0.01133
1233.50000    0.01128
1234.00000    0.01087
1234.50000    0.01013
1235.00000    0.00910
1235.50000    0.00782
1236.00000    0.00635
1236.50000    0.00477
1237.00000    0.00312
1237.50000    0.00150
1238.00000   -0.00003
1238.50000   -0.00140
1239.00000   -0.00252
1239.50000   -0.00333
1240.00000   -0.00376
1240.50000   -0.00373
1241.00000   -0.00319
1241.50000   -0.00208
1242.00000   -0.00036
1242.50000    0.00200
1243.00000    0.00503
1243.50000    0.00875
1244.00000    0.01314
1244.50000    0.01819
1245.00000    0.02386
1245.50000    0.03010
1246.00000    0.03683
1246.50000    0.04397
1247.00000    0.05139
1247.50000    0.05898
1248.00000    0.06660
1248.50000    0.07407
1249.00000    0.08124
1249.50000    0.08792
1250.00000    0.09393
1250.50000    0.09908
1251.00000    0.10318
1251.50000    0.10605
1252.00000    0.10752
1252.50000    0.10746
1253.00000    0.10572
1253.50000    0.10220
1254.00000    0.09683
1254.50000    0.08958
1255.00000    0.08044
1255.50000    0.06944
1256.00000    0.05668
1256.50000    0.04225
1257.00000    0.02632
1257.50000    0.00908
1258.00000   -0.00924
1258.50000   -0.02838
1259.00000   -0.04806
1259.50000   -0.06796
1260.00000   -0.08777
1260.50000   -0.10715
1261.00000   -0.12577
1261.50000   -0.14332
1262.00000   -0.15948
1262.50000   -0.17396
1263.00000   -0.18652
1263.50000   -0.19692
1264.00000   -0.20499
1264.50000   -0.21058
1265.00000   -0.21362
1265.50000   -0.21407
1266.00000   -0.21193
1266.50000   -0.20728
1267.00000   -0.20023
1267.50000   -0.19094
1268.00000   -0.17962
1268.50000   -0.16651
1269.00000   -0.15190
1269.50000   -0.13607
1270.00000   -0.11935
1270.50000   -0.10207
1271.00000   -0.08454
1271.50000   -0.06711
1272.00000   -0.05006
1272.50000   -0.03368
1273.00000   -0.01824
1273.50000   -0.00395
1274.00000    0.00900
1274.50000    0.02047
1275.00000    0.03036
1275.50000    0.03860
1276.00000    0.04519
1276.50000    0.05016
1277.00000    0.05358
1277.50000    0.05556
1278.00000    0.05624
1278.50000    0.05577
1279.00000    0.05435
1279.50000    0.05218
1280.00000    0.04945
1280.50000    0.04638
1281.00000    0.04315
1281.50000    0.03996
1282.00000    0.03698
1282.50000    0.03433
1283.00000    0.03215
1283.50000    0.03051
1284.00000    0.02947
1284.50000    0.02905
1285.00000    0.02924
1285.50000    0.02998
1286.00000    0.03121
1286.50000    0.03281
1287.00000    0.03468
1287.50000    0.03666
1288.00000    0.03861
1288.50000    0.04038
1289.00000    0.04181
1289.50000    0.04276
1290.00000    0.04310
1290.50000    0.04273
1291.00000    0.04157
1291.50000    0.03957
1292.00000    0.03670
1292.50000    0.03299
1293.00000    0.02848
1293.50000    0.02327
1294.00000    0.01745
1294.50000    0.01118
1295.00000    0.00463
1295.50000   -0.00203
1296.00000   -0.00860
1296.50000   -0.01488
1297.00000   -0.02070
1297.50000   -0.02585
1298.00000   -0.03019
1298.50000   -0.03358
1299.00000   -0.03591
1299.50000   -0.03709
1300.00000   -0.03710
1300.50000   -0.03593
1301.00000   -0.03360
1301.50000   -0.03018
1302.00000   -0.02577
1302.50000   -0.02048
1303.00000   -0.01447
1303.50000   -0.00789
1304.00000   -0.00091
1304.50000    0.00630
1305.00000    0.01357
1305.50000    0.02073
1306.00000    0.02765
1306.50000    0.03420
1307.00000    0.04026
1307.50000    0.04574
1308.00000    0.05059
1308.50000    0.05475
1309.00000    0.05820
1309.50000    0.06094
1310.00000    0.06296
1310.50000    0.06428
1311.00000    0.06491
1311.50000    0.06489
1312.00000    0.06424
1312.50000    0.06296
1313.00000    0.06108
1313.50000    0.05859
1314.00000    0.05549
1314.50000    0.05177
1315.00000    0.04743
1315.50000    0.04244
1316.00000    0.03681
1316.50000    0.03051
1317.00000    0.02357
1317.50000    0.01601
1318.00000    0.00785
1318.50000   -0.00082
1319.00000   -0.00993
1319.50000   -0.01936
1320.00000   -0.02898
1320.50000   -0.03861
1321.00000   -0.04808
1321.50000   -0.05717
1322.00000   -0.06566
1322.50000   -0.07333
1323.00000   -0.07993
1323.50000   -0.08524
1324.00000   -0.08905
1324.50000   -0.09116
1325.00000   -0.09139
1325.50000   -0.08962
1326.00000   -0.08574
1326.50000   -0.07968
1327.00000   -0.07144
1327.50000   -0.06103
1328.00000   -0.04853
1328.50000   -0.03404
1329.00000   -0.01773
1329.50000    0.00022
1330.00000    0.01961
1330.50000    0.04019
1331.00000    0.06173
1331.50000    0.08395
1332.00000    0.10662
1332.50000    0.12947
1333.00000    0.15228
1333.50000    0.17482
1334.00000    0.19690
1334.50000    0.21834
1335.00000    0.23899
1335.50000    0.25872
1336.00000    0.27743
1336.50000    0.29504
1337.00000    0.31147
1337.50000    0.32667
1338.00000    0.34058
1338.50000    0.35318
1339.00000    0.36441
1339.50000    0.37423
1340.00000    0.38258
1340.50000    0.38940
1341.00000    0.39463
1341.50000    0.39818
1342.00000    0.39997
1342.50000    0.39993
1343.00000    0.39797
1343.50000    0.39403
1344.00000    0.38805
1344.50000    0.37998
1345.00000    0.36982
1345.50000    0.35758
1346.00000    0.34331
1346.50000    0.32712
1347.00000    0.30912
1347.50000    0.28950
1348.00000    0.26845
1348.50000    0.24625
1349.00000    0.22317
1349.50000    0.19952
1350.00000    0.17564
1350.50000    0.15186
1351.00000    0.12854
1351.50000    0.10602
1352.00000    0.08461
1352.50000    0.06461
1353.00000    0.04629
1353.50000    0.02989
1354.00000    0.01557
1354.50000    0.00348
1355.00000   -0.00630
1355.50000   -0.01376
1356.00000   -0.01892
1356.50000   -0.02186
1357.00000   -0.02270
1357.50000   -0.02161
1358.00000   -0.01880
1358.50000   -0.01449
1359.00000   -0.00893
1359.50000   -0.00239
1360.00000    0.00487
1360.50000    0.01258
1361.00000    0.02051
1361.50000    0.02840
1362.00000    0.03605
1362.50000    0.04326
1363.00000    0.04988
1363.50000    0.05578
1364.00000    0.06085
1364.50000    0.06503
1365.00000    0.06827
1365.50000    0.07056
1366.00000    0.07191
1366.50000    0.07235
1367.00000    0.07191
1367.50000    0.07066
1368.00000    0.06867
1368.50000    0.06600
1369.00000    0.06271
1369.50000    0.05889
1370.00000    0.05459
1370.50000    0.04988
1371.00000    0.04480
1371.50000    0.03939
1372.00000    0.03371
1372.50000    0.02776
1373.00000    0.02157
1373.50000    0.01515
1374.00000    0.00851
1374.50000    0.00166
1375.00000   -0.00541
1375.50000   -0.01269
1376.00000   -0.02019
1376.50000   -0.02790
1377.00000   -0.03582
1377.50000   -0.04392
1378.00000   -0.05220
1378.50000   -0.06063
1379.00000   -0.06917
1379.50000   -0.07777
1380.00000   -0.08640
1380.50000   -0.09498
1381.00000   -0.10345
1381.50000   -0.11173
1382.00000   -0.11973
1382.50000   -0.12737
1383.00000   -0.13453
1383.50000   -0.14113
1384.00000   -0.14706
1384.50000   -0.15221
1385.00000   -0.15649
1385.50000   -0.15981
1386.00000   -0.16208
1386.50000   -0.16322
1387.00000   -0.16317
1387.50000   -0.16188
1388.00000   -0.15932
1388.50000   -0.15549
1389.00000   -0.15037
1389.50000   -0.14401
1390.00000   -0.13643
1390.50000   -0.12772
1391.00000   -0.11794
1391.50000   -0.10721
1392.00000   -0.09563
1392.50000   -0.08333
1393.00000   -0.07045
1393.50000   -0.05713
1394.00000   -0.04353
1394.50000   -0.02980
1395.00000   -0.01610
1395.50000   -0.00257
1396.00000    0.01064
1396.50000    0.02338
1397.00000    0.03553
1397.50000    0.04697
1398.00000    0.05758
1398.50000    0.06726
1399.00000    0.07592
1399.50000    0.08349
1400.00000    0.08990
1400.50000    0.09509
1401.00000    0.09903
1401.50000    0.10170
1402.00000    0.10307
1402.50000    0.10315
1403.00000    0.10196
1403.50000    0.09953
1404.00000    0.09590
1404.50000    0.09113
1405.00000    0.08531
1405.50000    0.07851
1406.00000    0.07085
1406.50000    0.06244
1407.00000    0.05340
1407.50000    0.04388
1408.00000    0.03401
1408.50000    0.02394
1409.00000    0.01383
1409.50000    0.00381
1410.00000   -0.00597
1410.50000   -0.01538
1411.00000   -0.02428
1411.50000   -0.03258
1412.00000   -0.04016
1412.50000   -0.04695
1413.00000   -0.05288
1413.50000   -0.05791
1414.00000   -0.06201
1414.50000   -0.06516
1415.00000   -0.06736
1415.50000   -0.06863
1416.00000   -0.06899
1416.50000   -0.06849
1417.00000   -0.06717
1417.50000   -0.06507
1418.00000   -0.06225
1418.50000   -0.05875
1419.00000   -0.05464
1419.50000   -0.04996
1420.00000   -0.04476
1420.50000   -0.03907
1421.00000   -0.03295
1421.50000   -0.02641
1422.00000   -0.01950
1422.50000   -0.01224
1423.00000   -0.00466
1423.50000    0.00323
1424.00000    0.01139
1424.50000    0.01980
1425.00000    0.02844
1425.50000    0.03727
1426.00000    0.04625
1426.50000    0.05537
1427.00000    0.06455
1427.50000    0.07376
1428.00000    0.08295
1428.50000    0.09203
1429.00000    0.10096
1429.50000    0.10964
1430.00000    0.11799
1430.50000    0.12593
1431.00000    0.13335
1431.50000    0.14016
1432.00000    0.14626
1432.50000    0.15153
1433.00000    0.15587
1433.50000    0.15917
1434.00000    0.16134
1434.50000    0.16226
1435.00000    0.16186
1435.50000    0.16006
1436.00000    0.15679
1436.50000    0.15200
1437.00000    0.14568
1437.50000    0.13780
1438.00000    0.12840
1438.50000    0.11750
1439.00000    0.10520
1439.50000    0.09158
1440.00000    0.07677
1440.50000    0.06094
1441.00000    0.04426
1441.50000    0.02693
1442.00000    0.00919
1442.50000   -0.00872
1443.00000   -0.02654
1443.50000   -0.04401
1444.00000   -0.06088
1444.50000   -0.07686
1445.00000   -0.09173
1445.50000   -0.10524
1446.00000   -0.11717
1446.50000   -0.12735
1447.00000   -0.13561
1447.50000   -0.14184
1448.00000   -0.14594
1448.50000   -0.14788
1449.00000   -0.14764
1449.50000   -0.14527
1450.00000   -0.14084
1450.50000   -0.13446
1451.00000   -0.12628
1451.50000   -0.11649
1452.00000   -0.10528
1452.50000   -0.09290
1453.00000   -0.07958
1453.50000   -0.06559
1454.00000   -0.05117
1454.50000   -0.03659
1455.00000   -0.02211
1455.50000   -0.00795
1456.00000    0.00566
1456.50000    0.01852
1457.00000    0.03045
1457.50000    0.04131
1458.00000    0.05098
1458.50000    0.05938
1459.00000    0.06645
1459.50000    0.07217
1460.00000    0.07655
1460.50000    0.07963
1461.00000    0.08147
1461.50000    0.08214
1462.00000    0.08176
1462.50000    0.08044
1463.00000    0.07829
1463.50000    0.07544
1464.00000    0.07201
1464.50000    0.06811
1465.00000    0.06385
1465.50000    0.05929
1466.00000    0.05452
1466.50000    0.04957
1467.00000    0.04447
1467.50000    0.03921
1468.00000    0.03379
1468.50000    0.02815
1469.00000    0.02225
1469.50000    0.01603
1470.00000    0.00942
1470.50000    0.00236
1471.00000   -0.00521
1471.50000   -0.01333
1472.00000   -0.02204
1472.50000   -0.03133
1473.00000   -0.04118
1473.50000   -0.05153
1474.00000   -0.06229
1474.50000   -0.07334
1475.00000   -0.08455
1475.50000   -0.09572
1476.00000   -0.10666
1476.50000   -0.11717
1477.00000   -0.12700
1477.50000   -0.13595
1478.00000   -0.14377
1478.50000   -0.15027
1479.00000   -0.15524
1479.50000   -0.15852
1480.00000   -0.15995
1480.50000   -0.15944
1481.00000   -0.15692
1481.50000   -0.15234
1482.00000   -0.14570
1482.50000   -0.13706
1483.00000   -0.12646
1483.50000   -0.11403
1484.00000   -0.09986
1484.50000   -0.08411
1485.00000   -0.06693
1485.50000   -0.04850
1486.00000   -0.02899
1486.50000   -0.00858
1487.00000    0.01253
1487.50000    0.03416
1488.00000    0.05611
1488.50000    0.07817
1489.00000    0.10016
1489.50000    0.12187
1490.00000    0.14307
1490.50000    0.16357
1491.00000    0.18312
1491.50000    0.20151
1492.00000    0.21851
1492.50000    0.23389
1493.00000    0.24742
1493.50000    0.25891
1494.00000    0.26816
1494.50000    0.27500
1495.00000    0.27930
1495.50000    0.28096
1496.00000    0.27993
1496.50000    0.27621
1497.00000    0.26984
1497.50000    0.26092
1498.00000    0.24961
1498.50000    0.23612
1499.00000    0.22069
1499.50000    0.20363
1500.00000    0.18527
1500.50000    0.16598
1501.00000    0.14612
1501.50000    0.12609
1502.00000    0.10625
1502.50000    0.08698
1503.00000    0.06860
1503.50000    0.05143
1504.00000    0.03572
1504.50000    0.02168
1505.00000    0.00948
1505.50000   -0.00077
1506.00000   -0.00902
1506.50000   -0.01526
1507.00000   -0.01952
1507.50000   -0.02190
1508.00000   -0.02250
1508.50000   -0.02147
1509.00000   -0.01899
1509.50000   -0.01523
1510.00000   -0.01039
1510.50000   -0.00467
1511.00000    0.00174
1511.50000    0.00866
1512.00000    0.01592
1512.50000    0.02334
1513.00000    0.03080
1513.50000    0.03816
1514.00000    0.04531
1514.50000    0.05216
1515.00000    0.05861
1515.50000    0.06459
1516.00000    0.07003
1516.50000    0.07488
1517.00000    0.07906
1517.50000    0.08253
1518.00000    0.08522
1518.50000    0.08708
1519.00000    0.08806
1519.50000    0.08809
1520.00000    0.08713
1520.50000    0.08512
1521.00000    0.08201
1521.50000    0.07777
1522.00000    0.07237
1522.50000    0.06580
1523.00000    0.05808
1523.50000    0.04922
1524.00000    0.03927
1524.50000    0.02832
1525.00000    0.01647
1525.50000    0.00384
1526.00000   -0.00941
1526.50000   -0.02310
1527.00000   -0.03706
1527.50000   -0.05105
1528.00000   -0.06486
1528.50000   -0.07827
1529.00000   -0.09104
1529.50000   -0.10297
1530.00000   -0.11384
1530.50000   -0.12348
1531.00000   -0.13173
1531.50000   -0.13846
1532.00000   -0.14359
1532.50000   -0.14705
1533.00000   -0.14884
1533.50000   -0.14899
1534.00000   -0.14754
1534.50000   -0.14460
1535.00000   -0.14028
1535.50000   -0.13473
1536.00000   -0.12809
1536.50000   -0.12053
1537.00000   -0.11222
1537.50000   -0.10331
1538.00000   -0.09394
1538.50000   -0.08424
1539.00000   -0.07434
1539.50000   -0.06431
1540.00000   -0.05424
1540.50000   -0.04418
1541.00000   -0.03417
1541.50000   -0.02424
1542.00000   -0.01442
1542.50000   -0.00472
1543.00000    0.00480
1543.50000    0.01413
1544.00000    0.02319
1544.50000    0.03190
1545.00000    0.04018
1545.50000    0.04790
1546.00000    0.05492
1546.50000    0.06110
1547.00000    0.06628
1547.50000    0.07030
1548.00000    0.07302
1548.50000    0.07429
1549.00000    0.07401
1549.50000    0.07212
1550.00000    0.06858
1550.50000    0.06342
1551.00000    0.05670
1551.50000    0.04856
1552.00000    0.03919
1552.50000    0.02882
1553.00000    0.01775
1553.50000    0.00630
1554.00000   -0.00515
1554.50000   -0.01623
1555.00000   -0.02654
1555.50000   -0.03569
1556.00000   -0.04330
1556.50000   -0.04905
1557.00000   -0.05261
1557.50000   -0.05375
1558.00000   -0.05227
1558.50000   -0.04804
1559.00000   -0.04097
1559.50000   -0.03105
1560.00000   -0.01833
1560.50000   -0.00289
1561.00000    0.01514
1561.50000    0.03561
1562.00000    0.05835
1562.50000    0.08319
1563.00000    0.10997
1563.50000    0.13854
1564.00000    0.16882
1564.50000    0.20075
1565.00000    0.23431
1565.50000    0.26958
1566.00000    0.30665
1566.50000    0.34571
1567.00000    0.38699
1567.50000    0.43076
1568.00000    0.47734
1568.50000    0.52707
1569.00000    0.58031
1569.50000    0.63741
1570.00000    0.69870
1570.50000    0.76448
1571.00000    0.83500
1571.50000    0.91046
1572.00000    0.99098
1572.50000    1.07660
1573.00000    1.16726
1573.50000    1.26284
1574.00000    1.36309
1574.50000    1.46770
1575.00000    1.57626
1575.50000    1.68827
1576.00000    1.80319
1576.50000    1.92038
1577.00000    2.03918
1577.50000    2.15888
1578.00000    2.27876
1578.50000    2.39807
1579.00000    2.51606
1579.50000    2.63201
1580.00000    2.74519
1580.50000    2.85491
1581.00000    2.96049
1581.50000    3.06130
1582.00000    3.15674
1582.50000    3.24624
1583.00000    3.32925
1583.50000    3.40528
1584.00000    3.47385
1584.50000    3.53453
1585.00000    3.58693
1585.50000    3.63068
1586.00000    3.66546
1586.50000    3.69098
1587.00000    3.70700
1587.50000    3.71335
1588.00000    3.70988
1588.50000    3.69654
1589.00000    3.67333
1589.50000    3.64032
1590.00000    3.59766
1590.50000    3.54559
1591.00000    3.48443
1591.50000    3.41457
1592.00000    3.33648
1592.50000    3.25070
1593.00000    3.15784
1593.50000    3.05858
1594.00000    2.95361
1594.50000    2.84370
1595.00000    2.72961
1595.50000    2.61214
1596.00000    2.49207
1596.50000    2.37019
1597.00000    2.24725
1597.50000    2.12398
1598.00000    2.00108
1598.50000    1.87918
1599.00000    1.75889
1599.50000    1.64074
1600.00000    1.52522
1600.50000    1.41276
1601.00000    1.30374
1601.50000    1.19847
1602.00000    1.09722
1602.50000    1.00022
1603.00000    0.90765
1603.50000    0.81964
1604.00000    0.73630
1604.50000    0.65770
1605.00000    0.58386
1605.50000    0.51481
1606.00000    0.45052
1606.50000    0.39094
1607.00000    0.33602
1607.50000    0.28566
1608.00000    0.23975
1608.50000    0.19818
1609.00000    0.16079
1609.50000    0.12744
1610.00000    0.09796
1610.50000    0.07218
1611.00000    0.04989
1611.50000    0.03093
1612.00000    0.01509
1612.50000    0.00217
1613.00000   -0.00803
1613.50000   -0.01569
1614.00000   -0.02102
1614.50000   -0.02422
1615.00000   -0.02547
1615.50000   -0.02497
1616.00000   -0.02290
1616.50000   -0.01945
1617.00000   -0.01480
1617.50000   -0.00914
1618.00000   -0.00265
1618.50000    0.00451
1619.00000    0.01214
1619.50000    0.02009
1620.00000    0.02819
1620.50000    0.03627
1621.00000    0.04419
1621.50000    0.05181
1622.00000    0.05898
1622.50000    0.06560
1623.00000    0.07154
1623.50000    0.07672
1624.00000    0.08106
1624.50000    0.08447
1625.00000    0.08691
1625.50000    0.08834
1626.00000    0.08873
1626.50000    0.08805
1627.00000    0.08632
1627.50000    0.08354
1628.00000    0.07974
1628.50000    0.07494
1629.00000    0.06921
1629.50000    0.06261
1630.00000    0.05522
1630.50000    0.04713
1631.00000    0.03844
1631.50000    0.02929
1632.00000    0.01979
1632.50000    0.01009
1633.00000    0.00033
1633.50000   -0.00933
1634.00000   -0.01873
1634.50000   -0.02774
1635.00000   -0.03621
1635.50000   -0.04401
1636.00000   -0.05102
1636.50000   -0.05716
1637.00000   -0.06235
1637.50000   -0.06654
1638.00000   -0.06972
1638.50000   -0.07189
1639.00000   -0.07308
1639.50000   -0.07335
1640.00000   -0.07276
1640.50000   -0.07140
1641.00000   -0.06937
1641.50000   -0.06678
1642.00000   -0.06374
1642.50000   -0.06036
1643.00000   -0.05672
1643.50000   -0.05293
1644.00000   -0.04907
1644.50000   -0.04520
1645.00000   -0.04137
1645.50000   -0.03763
1646.00000   -0.03400
1646.50000   -0.03052
1647.00000   -0.02718
1647.50000   -0.02401
1648.00000   -0.02101
1648.50000   -0.01820
1649.00000   -0.01559
1649.50000   -0.01321
1650.00000   -0.01109
1650.50000   -0.00926
1651.00000   -0.00776
1651.50000   -0.00663
1652.00000   -0.00592
1652.50000   -0.00568
1653.00000   -0.00593
1653.50000   -0.00671
1654.00000   -0.00805
1654.50000   -0.00994
1655.00000   -0.01239
1655.50000   -0.01538
1656.00000   -0.01888
1656.50000   -0.02284
1657.00000   -0.02719
1657.50000   -0.03186
1658.00000   -0.03676
1658.50000   -0.04180
1659.00000   -0.04687
1659.50000   -0.05186
1660.00000   -0.05667
1660.50000   -0.06116
1661.00000   -0.06524
1661.50000   -0.06879
1662.00000   -0.07169
1662.50000   -0.07385
1663.00000   -0.07518
1663.50000   -0.07558
1664.00000   -0.07498
1664.50000   -0.07333
1665.00000   -0.07057
1665.50000   -0.06669
1666.00000   -0.06169
1666.50000   -0.05557
1667.00000   -0.04841
1667.50000   -0.04026
1668.00000   -0.03124
1668.50000   -0.02147
1669.00000   -0.01112
1669.50000   -0.00037
1670.00000    0.01057
1670.50000    0.02149
1671.00000    0.03215
1671.50000    0.04232
1672.00000    0.05176
1672.50000    0.06028
1673.00000    0.06765
1673.50000    0.07373
1674.00000    0.07835
1674.50000    0.08143
1675.00000    0.08290
1675.50000    0.08275
1676.00000    0.08100
1676.50000    0.07771
1677.00000    0.07300
1677.50000    0.06699
1678.00000    0.05986
1678.50000    0.05179
1679.00000    0.04298
1679.50000    0.03365
1680.00000    0.02401
1680.50000    0.01426
1681.00000    0.00462
1681.50000   -0.00475
1682.00000   -0.01367
1682.50000   -0.02200
1683.00000   -0.02960
1683.50000   -0.03639
1684.00000   -0.04226
1684.50000   -0.04717
1685.00000   -0.05106
1685.50000   -0.05391
1686.00000   -0.05571
1686.50000   -0.05646
1687.00000   -0.05616
1687.50000   -0.05485
1688.00000   -0.05256
1688.50000   -0.04933
1689.00000   -0.04523
1689.50000   -0.04032
1690.00000   -0.03469
1690.50000   -0.02842
1691.00000   -0.02163
1691.50000   -0.01442
1692.00000   -0.00693
1692.50000    0.00071
1693.00000    0.00836
1693.50000    0.01586
1694.00000    0.02307
1694.50000    0.02984
1695.00000    0.03602
1695.50000    0.04149
1696.00000    0.04613
1696.50000    0.04983
1697.00000    0.05251
1697.50000    0.05411
1698.00000    0.05459
1698.50000    0.05394
1699.00000    0.05219
1699.50000    0.04938
1700.00000    0.04559
1700.50000    0.04091
1701.00000    0.03547
1701.50000    0.02940
1702.00000    0.02288
1702.50000    0.01607
1703.00000    0.00915
1703.50000    0.00231
1704.00000   -0.00426
1704.50000   -0.01038
1705.00000   -0.01590
1705.50000   -0.02065
1706.00000   -0.02450
1706.50000   -0.02735
1707.00000   -0.02911
1707.50000   -0.02974
1708.00000   -0.02921
1708.50000   -0.02753
1709.00000   -0.02476
1709.50000   -0.02094
1710.00000   -0.01620
1710.50000   -0.01064
1711.00000   -0.00440
1711.50000    0.00237
1712.00000    0.00951
1712.50000    0.01686
1713.00000    0.02427
1713.50000    0.03159
1714.00000    0.03869
1714.50000    0.04545
1715.00000    0.05178
1715.50000    0.05759
1716.00000    0.06284
1716.50000    0.06748
1717.00000    0.07149
1717.50000    0.07487
1718.00000    0.07764
1718.50000    0.07981
1719.00000    0.08141
1719.50000    0.08248
1720.00000    0.08306
1720.50000    0.08319
1721.00000    0.08291
1721.50000    0.08226
1722.00000    0.08129
1722.50000    0.08003
1723.00000    0.07851
1723.50000    0.07679
1724.00000    0.07488
1724.50000    0.07284
1725.00000    0.07069
1725.50000    0.06846
1726.00000    0.06618
1726.50000    0.06388
1727.00000    0.06156
1727.50000    0.05922
1728.00000    0.05686
1728.50000    0.05443
1729.00000    0.05190
1729.50000    0.04921
1730.00000    0.04627
1730.50000    0.04301
1731.00000    0.03932
1731.50000    0.03510
1732.00000    0.03025
1732.50000    0.02468
1733.00000    0.01831
1733.50000    0.01108
1734.00000    0.00295
1734.50000   -0.00606
1735.00000   -0.01593
1735.50000   -0.02658
1736.00000   -0.03788
1736.50000   -0.04969
1737.00000   -0.06182
1737.50000   -0.07403
1738.00000   -0.08611
1738.50000   -0.09778
1739.00000   -0.10879
1739.50000   -0.11891
1740.00000   -0.12789
1740.50000   -0.13554
1741.00000   -0.14170
1741.50000   -0.14625
1742.00000   -0.14914
1742.50000   -0.15034
1743.00000   -0.14990
1743.50000   -0.14791
1744.00000   -0.14451
1744.50000   -0.13988
1745.00000   -0.13422
1745.50000   -0.12778
1746.00000   -0.12080
1746.50000   -0.11352
1747.00000   -0.10619
1747.50000   -0.09902
1748.00000   -0.09220
1748.50000   -0.08588
1749.00000   -0.08018
1749.50000   -0.07515
1750.00000   -0.07083
1750.50000   -0.06715
1751.00000   -0.06406
1751.50000   -0.06141
1752.00000   -0.05905
1752.50000   -0.05678
1753.00000   -0.05437
1753.50000   -0.05161
1754.00000   -0.04825
1754.50000   -0.04405
1755.00000   -0.03881
1755.50000   -0.03233
1756.00000   -0.02444
1756.50000   -0.01501
1757.00000   -0.00396
1757.50000    0.00876
1758.00000    0.02314
1758.50000    0.03913
1759.00000    0.05664
1759.50000    0.07553
1760.00000    0.09565
1760.50000    0.11678
1761.00000    0.13871
1761.50000    0.16121
1762.00000    0.18404
1762.50000    0.20695
1763.00000    0.22971
1763.50000    0.25211
1764.00000    0.27394
1764.50000    0.29503
1765.00000    0.31523
1765.50000    0.33440
1766.00000    0.35245
1766.50000    0.36928
1767.00000    0.38483
1767.50000    0.39905
1768.00000    0.41187
1768.50000    0.42326
1769.00000    0.43314
1769.50000    0.44146
1770.00000    0.44815
1770.50000    0.45312
1771.00000    0.45629
1771.50000    0.45756
1772.00000    0.45683
1772.50000    0.45402
1773.00000    0.44905
1773.50000    0.44186
1774.00000    0.43244
1774.50000    0.42079
1775.00000    0.40696
1775.50000    0.39105
1776.00000    0.37323
1776.50000    0.35368
1777.00000    0.33266
1777.50000    0.31046
1778.00000    0.28742
1778.50000    0.26390
1779.00000    0.24027
1779.50000    0.21692
1780.00000    0.19423
1780.50000    0.17255
1781.00000    0.15221
1781.50000    0.13347
1782.00000    0.11655
1782.50000    0.10162
1783.00000    0.08877
1783.50000    0.07803
1784.00000    0.06935
1784.50000    0.06263
1785.00000    0.05774
1785.50000    0.05445
1786.00000    0.05255
1786.50000    0.05178
1787.00000    0.05186
1787.50000    0.05252
1788.00000    0.05352
1788.50000    0.05460
1789.00000    0.05557
1789.50000    0.05624
1790.00000    0.05648
1790.50000    0.05620
1791.00000    0.05533
1791.50000    0.05387
1792.00000    0.05183
1792.50000    0.04925
1793.00000    0.04619
1793.50000    0.04273
1794.00000    0.03896
1794.50000    0.03495
1795.00000    0.03077
1795.50000    0.02647
1796.00000    0.02210
1796.50000    0.01766
1797.00000    0.01315
1797.50000    0.00854
1798.00000    0.00378
1798.50000   -0.00117
1799.00000   -0.00639
1799.50000   -0.01194
1800.00000   -0.01785
1800.50000   -0.02417
1801.00000   -0.03090
1801.50000   -0.03803
1802.00000   -0.04550
1802.50000   -0.05323
1803.00000   -0.06109
1803.50000   -0.06892
1804.00000   -0.07654
1804.50000   -0.08373
1805.00000   -0.09028
1805.50000   -0.09594
1806.00000   -0.10051
1806.50000   -0.10378
1807.00000   -0.10556
1807.50000   -0.10574
1808.00000   -0.10422
1808.50000   -0.10099
1809.00000   -0.09607
1809.50000   -0.08959
1810.00000   -0.08170
1810.50000   -0.07264
1811.00000   -0.06269
1811.50000   -0.05216
1812.00000   -0.04141
1812.50000   -0.03080
1813.00000   -0.02069
1813.50000   -0.01142
1814.00000   -0.00330
1814.50000    0.00340
1815.00000    0.00849
1815.50000    0.01184
1816.00000    0.01337
1816.50000    0.01312
1817.00000    0.01115
1817.50000    0.00764
1818.00000    0.00280
1818.50000   -0.00309
1819.00000   -0.00974
1819.50000   -0.01679
1820.00000   -0.02391
1820.50000   -0.03074
1821.00000   -0.03698
1821.50000   -0.04232
1822.00000   -0.04653
1822.50000   -0.04939
1823.00000   -0.05076
1823.50000   -0.05058
1824.00000   -0.04881
1824.50000   -0.04551
1825.00000   -0.04076
1825.50000   -0.03470
1826.00000   -0.02752
1826.50000   -0.01942
1827.00000   -0.01064
1827.50000   -0.00140
1828.00000    0.00806
1828.50000    0.01754
1829.00000    0.02684
1829.50000    0.03581
1830.00000    0.04431
1830.50000    0.05228
1831.00000    0.05966
1831.50000    0.06648
1832.00000    0.07279
1832.50000    0.07866
1833.00000    0.08425
1833.50000    0.08969
1834.00000    0.09518
1834.50000    0.10091
1835.00000    0.10710
1835.50000    0.11394
1836.00000    0.12163
1836.50000    0.13035
1837.00000    0.14024
1837.50000    0.15142
1838.00000    0.16394
1838.50000    0.17784
1839.00000    0.19308
1839.50000    0.20957
1840.00000    0.22718
1840.50000    0.24572
1841.00000    0.26495
1841.50000    0.28459
1842.00000    0.30431
1842.50000    0.32379
1843.00000    0.34265
1843.50000    0.36054
1844.00000    0.37708
1844.50000    0.39194
1845.00000    0.40479
1845.50000    0.41536
1846.00000    0.42338
1846.50000    0.42867
1847.00000    0.43109
1847.50000    0.43054
1848.00000    0.42698
1848.50000    0.42045
1849.00000    0.41101
1849.50000    0.39878
1850.00000    0.38391
1850.50000    0.36662
1851.00000    0.34712
1851.50000    0.32566
1852.00000    0.30251
1852.50000    0.27793
1853.00000    0.25221
1853.50000    0.22563
1854.00000    0.19844
1854.50000    0.17091
1855.00000    0.14329
1855.50000    0.11580
1856.00000    0.08865
1856.50000    0.06205
1857.00000    0.03617
1857.50000    0.01118
1858.00000   -0.01278
1858.50000   -0.03558
1859.00000   -0.05710
1859.50000   -0.07723
1860.00000   -0.09588
1860.50000   -0.11297
1861.00000   -0.12842
1861.50000   -0.14216
1862.00000   -0.15414
1862.50000   -0.16430
1863.00000   -0.17259
1863.50000   -0.17897
1864.00000   -0.18340
1864.50000   -0.18586
1865.00000   -0.18632
1865.50000   -0.18478
1866.00000   -0.18125
1866.50000   -0.17574
1867.00000   -0.16830
1867.50000   -0.15900
1868.00000   -0.14792
1868.50000   -0.13519
1869.00000   -0.12095
1869.50000   -0.10538
1870.00000   -0.08869
1870.50000   -0.07114
1871.00000   -0.05297
1871.50000   -0.03447
1872.00000   -0.01596
1872.50000    0.00225
1873.00000    0.01985
1873.50000    0.03653
1874.00000    0.05201
1874.50000    0.06601
1875.00000    0.07831
1875.50000    0.08873
1876.00000    0.09712
1876.50000    0.10341
1877.00000    0.10756
1877.50000    0.10959
1878.00000    0.10960
1878.50000    0.10770
1879.00000    0.10407
1879.50000    0.09890
1880.00000    0.09244
1880.50000    0.08492
1881.00000    0.07660
1881.50000    0.06774
1882.00000    0.05858
1882.50000    0.04935
1883.00000    0.04024
1883.50000    0.03144
1884.00000    0.02310
1884.50000    0.01534
1885.00000    0.00824
1885.50000    0.00186
1886.00000   -0.00375
1886.50000   -0.00859
1887.00000   -0.01265
1887.50000   -0.01595
1888.00000   -0.01852
1888.50000   -0.02040
1889.00000   -0.02163
1889.50000   -0.02225
1890.00000   -0.02231
1890.50000   -0.02187
1891.00000   -0.02097
1891.50000   -0.01969
1892.00000   -0.01807
1892.50000   -0.01619
1893.00000   -0.01412
1893.50000   -0.01192
1894.00000   -0.00967
1894.50000   -0.00744
1895.00000   -0.00529
1895.50000   -0.00328
1896.00000   -0.00146
1896.50000    0.00015
1897.00000    0.00153
1897.50000    0.00267
1898.00000    0.00360
1898.50000    0.00435
1899.00000    0.00496
1899.50000    0.00550
1900.00000    0.00602
1900.50000    0.00660
1901.00000    0.00730
1901.50000    0.00817
1902.00000    0.00925
1902.50000    0.01055
1903.00000    0.01208
1903.50000    0.01381
1904.00000    0.01569
1904.50000    0.01764
1905.00000    0.01957
1905.50000    0.02138
1906.00000    0.02294
1906.50000    0.02414
1907.00000    0.02487
1907.50000    0.02501
1908.00000    0.02450
1908.50000    0.02328
1909.00000    0.02133
1909.50000    0.01866
1910.00000    0.01533
1910.50000    0.01142
1911.00000    0.00705
1911.50000    0.00236
1912.00000   -0.00246
1912.50000   -0.00725
1913.00000   -0.01181
1913.50000   -0.01596
1914.00000   -0.01951
1914.50000   -0.02232
1915.00000   -0.02425
1915.50000   -0.02519
1916.00000   -0.02507
1916.50000   -0.02386
1917.00000   -0.02154
1917.50000   -0.01816
1918.00000   -0.01375
1918.50000   -0.00841
1919.00000   -0.00225
1919.50000    0.00463
1920.00000    0.01208
1920.50000    0.01996
1921.00000    0.02814
1921.50000    0.03646
1922.00000    0.04480
1922.50000    0.05301
1923.00000    0.06096
1923.50000    0.06855
1924.00000    0.07566
1924.50000    0.08218
1925.00000    0.08801
1925.50000    0.09308
1926.00000    0.09730
1926.50000    0.10059
1927.00000    0.10290
1927.50000    0.10415
1928.00000    0.10432
1928.50000    0.10336
1929.00000    0.10127
1929.50000    0.09804
1930.00000    0.09370
1930.50000    0.08830
1931.00000    0.08189
1931.50000    0.07457
1932.00000    0.06645
1932.50000    0.05766
1933.00000    0.04835
1933.50000    0.03870
1934.00000    0.02889
1934.50000    0.01909
1935.00000    0.00950
1935.50000    0.00029
1936.00000   -0.00834
1936.50000   -0.01625
1937.00000   -0.02330
1937.50000   -0.02936
1938.00000   -0.03436
1938.50000   -0.03825
1939.00000   -0.04098
1939.50000   -0.04259
1940.00000   -0.04310
1940.50000   -0.04260
1941.00000   -0.04118
1941.50000   -0.03898
1942.00000   -0.03612
1942.50000   -0.03278
1943.00000   -0.02911
1943.50000   -0.02528
1944.00000   -0.02146
1944.50000   -0.01779
1945.00000   -0.01441
1945.50000   -0.01145
1946.00000   -0.00899
1946.50000   -0.00711
1947.00000   -0.00584
1947.50000   -0.00521
1948.00000   -0.00519
1948.50000   -0.00576
1949.00000   -0.00684
1949.50000   -0.00836
1950.00000   -0.01021
1950.50000   -0.01230
1951.00000   -0.01451
1951.50000   -0.01672
1952.00000   -0.01882
1952.50000   -0.02071
1953.00000   -0.02230
1953.50000   -0.02351
1954.00000   -0.02430
1954.50000   -0.02464
1955.00000   -0.02451
1955.50000   -0.02394
1956.00000   -0.02298
1956.50000   -0.02169
1957.00000   -0.02016
1957.50000   -0.01851
1958.00000   -0.01687
1958.50000   -0.01536
1959.00000   -0.01414
1959.50000   -0.01335
1960.00000   -0.01313
1960.50000   -0.01359
1961.00000   -0.01484
1961.50000   -0.01696
1962.00000   -0.01999
1962.50000   -0.02394
1963.00000   -0.02878
1963.50000   -0.03444
1964.00000   -0.04079
1964.50000   -0.04769
1965.00000   -0.05494
1965.50000   -0.06231
1966.00000   -0.06954
1966.50000   -0.07636
1967.00000   -0.08250
1967.50000   -0.08768
1968.00000   -0.09165
1968.50000   -0.09416
1969.00000   -0.09503
1969.50000   -0.09411
1970.00000   -0.09130
1970.50000   -0.08658
1971.00000   -0.07998
1971.50000   -0.07160
1972.00000   -0.06162
1972.50000   -0.05027
1973.00000   -0.03782
1973.50000   -0.02462
1974.00000   -0.01102
1974.50000    0.00259
1975.00000    0.01580
1975.50000    0.02823
1976.00000    0.03950
1976.50000    0.04927
1977.00000    0.05726
1977.50000    0.06321
1978.00000    0.06695
1978.50000    0.06838
1979.00000    0.06748
1979.50000    0.06428
1980.00000    0.05892
1980.50000    0.05158
1981.00000    0.04253
1981.50000    0.03209
1982.00000    0.02062
1982.50000    0.00853
1983.00000   -0.00376
1983.50000   -0.01583
1984.00000   -0.02725
1984.50000   -0.03762
1985.00000   -0.04656
1985.50000   -0.05377
1986.00000   -0.05897
1986.50000   -0.06197
1987.00000   -0.06266
1987.50000   -0.06099
1988.00000   -0.05700
1988.50000   -0.05081
1989.00000   -0.04261
1989.50000   -0.03267
1990.00000   -0.02130
1990.50000   -0.00887
1991.00000    0.00422
1991.50000    0.01755
1992.00000    0.03071
1992.50000    0.04329
1993.00000    0.05492
1993.50000    0.06525
1994.00000    0.07400
1994.50000    0.08095
1995.00000    0.08594
1995.50000    0.08889
1996.00000    0.08977
1996.50000    0.08866
1997.00000    0.08566
1997.50000    0.08096
1998.00000    0.07479
1998.50000    0.06740
1999.00000    0.05909
1999.50000    0.05016
2000.00000    0.04091
2000.50000    0.03165
2001.00000    0.02266
2001.50000    0.01418
2002.00000    0.00644
2002.50000   -0.00039
2003.00000   -0.00615
2003.50000   -0.01074
2004.00000   -0.01410
2004.50000   -0.01619
2005.00000   -0.01704
2005.50000   -0.01666
2006.00000   -0.01512
2006.50000   -0.01250
2007.00000   -0.00889
2007.50000   -0.00442
2008.00000    0.00079
2008.50000    0.00662
2009.00000    0.01292
2009.50000    0.01954
2010.00000    0.02633
2010.50000    0.03311
2011.00000    0.03973
2011.50000    0.04601
2012.00000    0.05178
2012.50000    0.05686
2013.00000    0.06108
2013.50000    0.06426
2014.00000    0.06626
2014.50000    0.06694
2015.00000    0.06616
2015.50000    0.06384
2016.00000    0.05991
2016.50000    0.05434
2017.00000    0.04713
2017.50000    0.03831
2018.00000    0.02797
2018.50000    0.01622
2019.00000    0.00321
2019.50000   -0.01087
2020.00000   -0.02581
2020.50000   -0.04138
2021.00000   -0.05734
2021.50000   -0.07342
2022.00000   -0.08936
2022.50000   -0.10492
2023.00000   -0.11983
2023.50000   -0.13389
2024.00000   -0.14687
2024.50000   -0.15860
2025.00000   -0.16892
2025.50000   -0.17772
2026.00000   -0.18490
2026.50000   -0.19040
2027.00000   -0.19419
2027.50000   -0.19628
2028.00000   -0.19668
2028.50000   -0.19544
2029.00000   -0.19263
2029.50000   -0.18833
2030.00000   -0.18263
2030.50000   -0.17562
2031.00000   -0.16743
2031.50000   -0.15814
2032.00000   -0.14788
2032.50000   -0.13675
2033.00000   -0.12485
2033.50000   -0.11229
2034.00000   -0.09916
2034.50000   -0.08555
2035.00000   -0.07156
2035.50000   -0.05727
2036.00000   -0.04275
2036.50000   -0.02810
2037.00000   -0.01338
2037.50000    0.00132
2038.00000    0.01594
2038.50000    0.03039
2039.00000    0.04460
2039.50000    0.05850
2040.00000    0.07201
2040.50000    0.08506
2041.00000    0.09756
2041.50000    0.10944
2042.00000    0.12062
2042.50000    0.13102
2043.00000    0.14056
2043.50000    0.14917
2044.00000    0.15676
2044.50000    0.16326
2045.00000    0.16860
2045.50000    0.17270
2046.00000    0.17550
2046.50000    0.17695
2047.00000    0.17700
2047.50000    0.17561
2048.00000    0.17275
2048.50000    0.16843
2049.00000    0.16265
2049.50000    0.15545
2050.00000    0.14689
2050.50000    0.13704
2051.00000    0.12600
2051.50000    0.11391
2052.00000    0.10092
2052.50000    0.08720
2053.00000    0.07294
2053.50000    0.05836
2054.00000    0.04368
2054.50000    0.02913
2055.00000    0.01495
2055.50000    0.00137
2056.00000   -0.01138
2056.50000   -0.02308
2057.00000   -0.03355
2057.50000   -0.04259
2058.00000   -0.05006
2058.50000   -0.05584
2059.00000   -0.05982
2059.50000   -0.06196
2060.00000   -0.06222
2060.50000   -0.06060
2061.00000   -0.05714
2061.50000   -0.05190
2062.00000   -0.04499
2062.50000   -0.03652
2063.00000   -0.02663
2063.50000   -0.01550
2064.00000   -0.00332
2064.50000    0.00971
2065.00000    0.02337
2065.50000    0.03743
2066.00000    0.05165
2066.50000    0.06579
2067.00000    0.07959
2067.50000    0.09283
2068.00000    0.10527
2068.50000    0.11668
2069.00000    0.12685
2069.50000    0.13561
2070.00000    0.14280
2070.50000    0.14827
2071.00000    0.15195
2071.50000    0.15377
2072.00000    0.15371
2072.50000    0.15179
2073.00000    0.14807
2073.50000    0.14266
2074.00000    0.13568
2074.50000    0.12729
2075.00000    0.11771
2075.50000    0.10712
2076.00000    0.09576
2076.50000    0.08387
2077.00000    0.07165
2077.50000    0.05934
2078.00000    0.04712
2078.50000    0.03516
2079.00000    0.02362
2079.50000    0.01259
2080.00000    0.00215
2080.50000   -0.00768
2081.00000   -0.01691
2081.50000   -0.02556
2082.00000   -0.03372
2082.50000   -0.04148
2083.00000   -0.04895
2083.50000   -0.05625
2084.00000   -0.06350
2084.50000   -0.07083
2085.00000   -0.07832
2085.50000   -0.08606
2086.00000   -0.09407
2086.50000   -0.10237
2087.00000   -0.11093
2087.50000   -0.11965
2088.00000   -0.12843
2088.50000   -0.13709
2089.00000   -0.14543
2089.50000   -0.15321
2090.00000   -0.16016
2090.50000   -0.16601
2091.00000   -0.17043
2091.50000   -0.17314
2092.00000   -0.17383
2092.50000   -0.17222
2093.00000   -0.16805
2093.50000   -0.16109
2094.00000   -0.15115
2094.50000   -0.13810
2095.00000   -0.12184
2095.50000   -0.10234
2096.00000   -0.07963
2096.50000   -0.05380
2097.00000   -0.02498
2097.50000    0.00662
2098.00000    0.04075
2098.50000    0.07711
2099.00000    0.11535
2099.50000    0.15510
2100.00000    0.19594
2100.50000    0.23744
2101.00000    0.27916
2101.50000    0.32065
2102.00000    0.36147
2102.50000    0.40119
2103.00000    0.43941
2103.50000    0.47574
2104.00000    0.50985
2104.50000    0.54143
2105.00000    0.57024
2105.50000    0.59609
2106.00000    0.61881
2106.50000    0.63834
2107.00000    0.65464
2107.50000    0.66775
2108.00000    0.67775
2108.50000    0.68479
2109.00000    0.68905
2109.50000    0.69077
2110.00000    0.69023
2110.50000    0.68774
2111.00000    0.68361
2111.50000    0.67820
2112.00000    0.67187
2112.50000    0.66495
2113.00000    0.65780
2113.50000    0.65073
2114.00000    0.64404
2114.50000    0.63797
2115.00000    0.63274
2115.50000    0.62850
2116.00000    0.62537
2116.50000    0.62339
2117.00000    0.62254
2117.50000    0.62275
2118.00000    0.62390
2118.50000    0.62579
2119.00000    0.62819
2119.50000    0.63084
2120.00000    0.63341
2120.50000    0.63560
2121.00000    0.63705
2121.50000    0.63744
2122.00000    0.63644
2122.50000    0.63376
2123.00000    0.62915
2123.50000    0.62239
2124.00000    0.61334
2124.50000    0.60189
2125.00000    0.58802
2125.50000    0.57177
2126.00000    0.55323
2126.50000    0.53257
2127.00000    0.51000
2127.50000    0.48577
2128.00000    0.46018
2128.50000    0.43352
2129.00000    0.40612
2129.50000    0.37829
2130.00000    0.35032
2130.50000    0.32248
2131.00000    0.29500
2131.50000    0.26807
2132.00000    0.24183
2132.50000    0.21639
2133.00000    0.19178
2133.50000    0.16801
2134.00000    0.14505
2134.50000    0.12283
2135.00000    0.10126
2135.50000    0.08026
2136.00000    0.05971
2136.50000    0.03952
2137.00000    0.01962
2137.50000   -0.00005
2138.00000   -0.01953
2138.50000   -0.03881
2139.00000   -0.05785
2139.50000   -0.07660
2140.00000   -0.09496
2140.50000   -0.11281
2141.00000   -0.12999
2141.50000   -0.14636
2142.00000   -0.16175
2142.50000   -0.17597
2143.00000   -0.18884
2143.50000   -0.20021
2144.00000   -0.20991
2144.50000   -0.21780
2145.00000   -0.22376
2145.50000   -0.22767
2146.00000   -0.22946
2146.50000   -0.22908
2147.00000   -0.22649
2147.50000   -0.22169
2148.00000   -0.21471
2148.50000   -0.20561
2149.00000   -0.19447
2149.50000   -0.18141
2150.00000   -0.16657
2150.50000   -0.15011
2151.00000   -0.13225
2151.50000   -0.11321
2152.00000   -0.09321
2152.50000   -0.07253
2153.00000   -0.05143
2153.50000   -0.03018
2154.00000   -0.00907
2154.50000    0.01164
2155.00000    0.03169
2155.50000    0.05085
2156.00000    0.06890
2156.50000    0.08565
2157.00000    0.10095
2157.50000    0.11468
2158.00000    0.12677
2158.50000    0.13717
2159.00000    0.14588
2159.50000    0.15294
2160.00000    0.15841
2160.50000    0.16239
2161.00000    0.16500
2161.50000    0.16640
2162.00000    0.16675
2162.50000    0.16623
2163.00000    0.16503
2163.50000    0.16335
2164.00000    0.16137
2164.50000    0.15929
2165.00000    0.15727
2165.50000    0.15549
2166.00000    0.15406
2166.50000    0.15312
2167.00000    0.15274
2167.50000    0.15299
2168.00000    0.15389
2168.50000    0.15542
2169.00000    0.15753
2169.50000    0.16015
2170.00000    0.16316
2170.50000    0.16641
2171.00000    0.16975
2171.50000    0.17298
2172.00000    0.17591
2172.50000    0.17836
2173.00000    0.18014
2173.50000    0.18108
2174.00000    0.18104
2174.50000    0.17991
2175.00000    0.17761
2175.50000    0.17412
2176.00000    0.16944
2176.50000    0.16364
2177.00000    0.15680
2177.50000    0.14906
2178.00000    0.14057
2178.50000    0.13150
2179.00000    0.12203
2179.50000    0.11233
2180.00000    0.10258
2180.50000    0.09290
2181.00000    0.08341
2181.50000    0.07418
2182.00000    0.06524
2182.50000    0.05657
2183.00000    0.04813
2183.50000    0.03983
2184.00000    0.03156
2184.50000    0.02319
2185.00000    0.01457
2185.50000    0.00554
2186.00000   -0.00402
2186.50000   -0.01424
2187.00000   -0.02521
2187.50000   -0.03699
2188.00000   -0.04961
2188.50000   -0.06305
2189.00000   -0.07724
2189.50000   -0.09208
2190.00000   -0.10742
2190.50000   -0.12309
2191.00000   -0.13887
2191.50000   -0.15453
2192.00000   -0.16982
2192.50000   -0.18449
2193.00000   -0.19827
2193.50000   -0.21090
2194.00000   -0.22213
2194.50000   -0.23175
2195.00000   -0.23955
2195.50000   -0.24535
2196.00000   -0.24901
2196.50000   -0.25042
2197.00000   -0.24951
2197.50000   -0.24626
2198.00000   -0.24067
2198.50000   -0.23280
2199.00000   -0.22274
2199.50000   -0.21060
2200.00000   -0.19656
2200.50000   -0.18080
2201.00000   -0.16354
2201.50000   -0.14501
2202.00000   -0.12543
2202.50000   -0.10507
2203.00000   -0.08416
2203.50000   -0.06293
2204.00000   -0.04159
2204.50000   -0.02033
2205.00000    0.00067
2205.50000    0.02127
2206.00000    0.04137
2206.50000    0.06088
2207.00000    0.07973
2207.50000    0.09787
2208.00000    0.11529
2208.50000    0.13196
2209.00000    0.14785
2209.50000    0.16295
2210.00000    0.17721
2210.50000    0.19060
2211.00000    0.20305
2211.50000    0.21448
2212.00000    0.22480
2212.50000    0.23391
2213.00000    0.24169
2213.50000    0.24804
2214.00000    0.25286
2214.50000    0.25604
2215.00000    0.25752
2215.50000    0.25727
2216.00000    0.25525
2216.50000    0.25151
2217.00000    0.24610
2217.50000    0.23912
2218.00000    0.23071
2218.50000    0.22102
2219.00000    0.21026
2219.50000    0.19861
2220.00000    0.18631
2220.50000    0.17356
2221.00000    0.16058
2221.50000    0.14756
2222.00000    0.13468
2222.50000    0.12209
2223.00000    0.10991
2223.50000    0.09824
2224.00000    0.08714
2224.50000    0.07664
2225.00000    0.06675
2225.50000    0.05746
2226.00000    0.04874
2226.50000    0.04053
2227.00000    0.03278
2227.50000    0.02541
2228.00000    0.01835
2228.50000    0.01151
2229.00000    0.00483
2229.50000   -0.00178
2230.00000   -0.00840
2230.50000   -0.01510
2231.00000   -0.02195
2231.50000   -0.02901
2232.00000   -0.03635
2232.50000   -0.04402
2233.00000   -0.05203
2233.50000   -0.06042
2234.00000   -0.06920
2234.50000   -0.07834
2235.00000   -0.08780
2235.50000   -0.09753
2236.00000   -0.10743
2236.50000   -0.11740
2237.00000   -0.12730
2237.50000   -0.13697
2238.00000   -0.14624
2238.50000   -0.15492
2239.00000   -0.16280
2239.50000   -0.16970
2240.00000   -0.17541
2240.50000   -0.17976
2241.00000   -0.18257
2241.50000   -0.18372
2242.00000   -0.18308
2242.50000   -0.18059
2243.00000   -0.17621
2243.50000   -0.16995
2244.00000   -0.16185
2244.50000   -0.15200
2245.00000   -0.14051
2245.50000   -0.12755
2246.00000   -0.11330
2246.50000   -0.09796
2247.00000   -0.08175
2247.50000   -0.06489
2248.00000   -0.04763
2248.50000   -0.03018
2249.00000   -0.01276
2249.50000    0.00444
2250.00000    0.02123
2250.50000    0.03747
2251.00000    0.05303
2251.50000    0.06779
2252.00000    0.08168
2252.50000    0.09465
2253.00000    0.10664
2253.50000    0.11764
2254.00000    0.12764
2254.50000    0.13663
2255.00000    0.14463
2255.50000    0.15164
2256.00000    0.15767
2256.50000    0.16273
2257.00000    0.16682
2257.50000    0.16995
2258.00000    0.17214
2258.50000    0.17339
2259.00000    0.17372
2259.50000    0.17317
2260.00000    0.17176
2260.50000    0.16954
2261.00000    0.16659
2261.50000    0.16299
2262.00000    0.15883
2262.50000    0.15422
2263.00000    0.14928
2263.50000    0.14413
2264.00000    0.13889
2264.50000    0.13369
2265.00000    0.12863
2265.50000    0.12379
2266.00000    0.11924
2266.50000    0.11500
2267.00000    0.11110
2267.50000    0.10748
2268.00000    0.10410
2268.50000    0.10086
2269.00000    0.09764
2269.50000    0.09430
2270.00000    0.09068
2270.50000    0.08662
2271.00000    0.08195
2271.50000    0.07654
2272.00000    0.07023
2272.50000    0.06291
2273.00000    0.05452
2273.50000    0.04500
2274.00000    0.03434
2274.50000    0.02257
2275.00000    0.00977
2275.50000   -0.00396
2276.00000   -0.01846
2276.50000   -0.03358
2277.00000   -0.04909
2277.50000   -0.06477
2278.00000   -0.08038
2278.50000   -0.09565
2279.00000   -0.11032
2279.50000   -0.12413
2280.00000   -0.13681
2280.50000   -0.14809
2281.00000   -0.15774
2281.50000   -0.16555
2282.00000   -0.17130
2282.50000   -0.17483
2283.00000   -0.17602
2283.50000   -0.17477
2284.00000   -0.17105
2284.50000   -0.16484
2285.00000   -0.15621
2285.50000   -0.14526
2286.00000   -0.13216
2286.50000   -0.11709
2287.00000   -0.10030
2287.50000   -0.08209
2288.00000   -0.06276
2288.50000   -0.04264
2289.00000   -0.02210
2289.50000   -0.00147
2290.00000    0.01890
2290.50000    0.03869
2291.00000    0.05758
2291.50000    0.07531
2292.00000    0.09163
2292.50000    0.10635
2293.00000    0.11929
2293.50000    0.13032
2294.00000    0.13935
2294.50000    0.14632
2295.00000    0.15118
2295.50000    0.15392
2296.00000    0.15453
2296.50000    0.15304
2297.00000    0.14947
2297.50000    0.14386
2298.00000    0.13626
2298.50000    0.12674
2299.00000    0.11537
2299.50000    0.10225
2300.00000    0.08750
2300.50000    0.07127
2301.00000    0.05373
2301.50000    0.03507
2302.00000    0.01552
2302.50000   -0.00465
2303.00000   -0.02518
2303.50000   -0.04575
2304.00000   -0.06606
2304.50000   -0.08579
2305.00000   -0.10462
2305.50000   -0.12227
2306.00000   -0.13845
2306.50000   -0.15290
2307.00000   -0.16542
2307.50000   -0.17583
2308.00000   -0.18400
2308.50000   -0.18986
2309.00000   -0.19337
2309.50000   -0.19454
2310.00000   -0.19342
2310.50000   -0.19011
2311.00000   -0.18473
2311.50000   -0.17744
2312.00000   -0.16841
2312.50000   -0.15784
2313.00000   -0.14594
2313.50000   -0.13292
2314.00000   -0.11902
2314.50000   -0.10445
2315.00000   -0.08944
2315.50000   -0.07423
2316.00000   -0.05902
2316.50000   -0.04404
2317.00000   -0.02950
2317.50000   -0.01560
2318.00000   -0.00252
2318.50000    0.00956
2319.00000    0.02049
2319.50000    0.03016
2320.00000    0.03844
2320.50000    0.04527
2321.00000    0.05061
2321.50000    0.05445
2322.00000    0.05681
2322.50000    0.05774
2323.00000    0.05734
2323.50000    0.05572
2324.00000    0.05302
2324.50000    0.04939
2325.00000    0.04500
2325.50000    0.04002
2326.00000    0.03464
2326.50000    0.02902
2327.00000    0.02332
2327.50000    0.01770
2328.00000    0.01227
2328.50000    0.00716
2329.00000    0.00246
2329.50000   -0.00177
2330.00000   -0.00546
2330.50000   -0.00858
2331.00000   -0.01109
2331.50000   -0.01298
2332.00000   -0.01424
2332.50000   -0.01487
2333.00000   -0.01485
2333.50000   -0.01419
2334.00000   -0.01288
2334.50000   -0.01092
2335.00000   -0.00832
2335.50000   -0.00506
2336.00000   -0.00115
2336.50000    0.00339
2337.00000    0.00854
2337.50000    0.01427
2338.00000    0.02053
2338.50000    0.02725
2339.00000    0.03436
2339.50000    0.04175
2340.00000    0.04930
2340.50000    0.05688
2341.00000    0.06433
2341.50000    0.07149
2342.00000    0.07819
2342.50000    0.08426
2343.00000    0.08952
2343.50000    0.09383
2344.00000    0.09704
2344.50000    0.09903
2345.00000    0.09970
2345.50000    0.09900
2346.00000    0.09691
2346.50000    0.09345
2347.00000    0.08870
2347.50000    0.08277
2348.00000    0.07582
2348.50000    0.06804
2349.00000    0.05968
2349.50000    0.05099
2350.00000    0.04226
2350.50000    0.03379
2351.00000    0.02586
2351.50000    0.01877
2352.00000    0.01278
2352.50000    0.00811
2353.00000    0.00494
2353.50000    0.00340
2354.00000    0.00356
2354.50000    0.00544
2355.00000    0.00896
2355.50000    0.01400
2356.00000    0.02037
2356.50000    0.02782
2357.00000    0.03607
2357.50000    0.04477
2358.00000    0.05358
2358.50000    0.06213
2359.00000    0.07005
2359.50000    0.07700
2360.00000    0.08265
2360.50000    0.08672
2361.00000    0.08901
2361.50000    0.08933
2362.00000    0.08759
2362.50000    0.08374
2363.00000    0.07783
2363.50000    0.06995
2364.00000    0.06026
2364.50000    0.04895
2365.00000    0.03627
2365.50000    0.02251
2366.00000    0.00794
2366.50000   -0.00711
2367.00000   -0.02234
2367.50000   -0.03747
2368.00000   -0.05222
2368.50000   -0.06634
2369.00000   -0.07962
2369.50000   -0.09187
2370.00000   -0.10294
2370.50000   -0.11270
2371.00000   -0.12108
2371.50000   -0.12802
2372.00000   -0.13346
2372.50000   -0.13740
2373.00000   -0.13982
2373.50000   -0.14075
2374.00000   -0.14019
2374.50000   -0.13817
2375.00000   -0.13473
2375.50000   -0.12992
2376.00000   -0.12378
2376.50000   -0.11640
2377.00000   -0.10787
2377.50000   -0.09829
2378.00000   -0.08781
2378.50000   -0.07659
2379.00000   -0.06483
2379.50000   -0.05273
2380.00000   -0.04055
2380.50000   -0.02854
2381.00000   -0.01696
2381.50000   -0.00609
2382.00000    0.00381
2382.50000    0.01250
2383.00000    0.01978
2383.50000    0.02548
2384.00000    0.02949
2384.50000    0.03177
2385.00000    0.03232
2385.50000    0.03123
2386.00000    0.02867
2386.50000    0.02485
2387.00000    0.02004
2387.50000    0.01458
2388.00000    0.00881
2388.50000    0.00311
2389.00000   -0.00216
2389.50000   -0.00662
2390.00000   -0.00997
2390.50000   -0.01191
2391.00000   -0.01225
2391.50000   -0.01082
2392.00000   -0.00756
2392.50000   -0.00249
2393.00000    0.00432
2393.50000    0.01269
2394.00000    0.02240
2394.50000    0.03316
2395.00000    0.04465
2395.50000    0.05651
2396.00000    0.06837
2396.50000    0.07986
2397.00000    0.09063
2397.50000    0.10034
2398.00000    0.10870
2398.50000    0.11548
2399.00000    0.12049
2399.50000    0.12359
2400.00000    0.12471
2400.50000    0.12386
2401.00000    0.12107
2401.50000    0.11644
2402.00000    0.11012
2402.50000    0.10231
2403.00000    0.09322
2403.50000    0.08311
2404.00000    0.07223
2404.50000    0.06086
2405.00000    0.04925
2405.50000    0.03768
2406.00000    0.02636
2406.50000    0.01551
2407.00000    0.00529
2407.50000   -0.00416
2408.00000   -0.01277
2408.50000   -0.02050
2409.00000   -0.02736
2409.50000   -0.03341
2410.00000   -0.03876
2410.50000   -0.04355
2411.00000   -0.04795
2411.50000   -0.05215
2412.00000   -0.05636
2412.50000   -0.06077
2413.00000   -0.06557
2413.50000   -0.07092
2414.00000   -0.07696
2414.50000   -0.08376
2415.00000   -0.09138
2415.50000   -0.09978
2416.00000   -0.10890
2416.50000   -0.11862
2417.00000   -0.12877
2417.50000   -0.13913
2418.00000   -0.14947
2418.50000   -0.15951
2419.00000   -0.16900
2419.50000   -0.17764
2420.00000   -0.18518
2420.50000   -0.19140
2421.00000   -0.19607
2421.50000   -0.19904
2422.00000   -0.20019
2422.50000   -0.19943
2423.00000   -0.19674
2423.50000   -0.19213
2424.00000   -0.18565
2424.50000   -0.17741
2425.00000   -0.16752
2425.50000   -0.15613
2426.00000   -0.14342
2426.50000   -0.12957
2427.00000   -0.11478
2427.50000   -0.09926
2428.00000   -0.08321
2428.50000   -0.06686
2429.00000   -0.05040
2429.50000   -0.03405
2430.00000   -0.01802
2430.50000   -0.00251
2431.00000    0.01229
2431.50000    0.02618
2432.00000    0.03900
2432.50000    0.05059
2433.00000    0.06081
2433.50000    0.06953
2434.00000    0.07668
2434.50000    0.08220
2435.00000    0.08606
2435.50000    0.08828
2436.00000    0.08891
2436.50000    0.08804
2437.00000    0.08578
2437.50000    0.08231
2438.00000    0.07781
2438.50000    0.07248
2439.00000    0.06657
2439.50000    0.06031
2440.00000    0.05394
2440.50000    0.04771
2441.00000    0.04186
2441.50000    0.03659
2442.00000    0.03212
2442.50000    0.02862
2443.00000    0.02622
2443.50000    0.02505
2444.00000    0.02518
2444.50000    0.02667
2445.00000    0.02951
2445.50000    0.03370
2446.00000    0.03917
2446.50000    0.04586
2447.00000    0.05363
2447.50000    0.06236
2448.00000    0.07189
2448.50000    0.08202
2449.00000    0.09256
2449.50000    0.10329
2450.00000    0.11399
2450.50000    0.12440
2451.00000    0.13431
2451.50000    0.14346
2452.00000    0.15162
2452.50000    0.15856
2453.00000    0.16407
2453.50000    0.16796
2454.00000    0.17006
2454.50000    0.17022
2455.00000    0.16834
2455.50000    0.16434
2456.00000    0.15819
2456.50000    0.14990
2457.00000    0.13952
2457.50000    0.12714
2458.00000    0.11290
2458.50000    0.09698
2459.00000    0.07961
2459.50000    0.06102
2460.00000    0.04152
2460.50000    0.02140
2461.00000    0.00099
2461.50000   -0.01938
2462.00000   -0.03936
2462.50000   -0.05862
2463.00000   -0.07684
2463.50000   -0.09372
2464.00000   -0.10899
2464.50000   -0.12241
2465.00000   -0.13378
2465.50000   -0.14294
2466.00000   -0.14979
2466.50000   -0.15425
2467.00000   -0.15633
2467.50000   -0.15603
2468.00000   -0.15345
2468.50000   -0.14869
2469.00000   -0.14192
2469.50000   -0.13331
2470.00000   -0.12307
2470.50000   -0.11142
2471.00000   -0.09863
2471.50000   -0.08492
2472.00000   -0.07056
2472.50000   -0.05578
2473.00000   -0.04082
2473.50000   -0.02591
2474.00000   -0.01125
2474.50000    0.00298
2475.00000    0.01662
2475.50000    0.02952
2476.00000    0.04159
2476.50000    0.05273
2477.00000    0.06289
2477.50000    0.07203
2478.00000    0.08014
2478.50000    0.08722
2479.00000    0.09330
2479.50000    0.09841
2480.00000    0.10261
2480.50000    0.10595
2481.00000    0.10849
2481.50000    0.11029
2482.00000    0.11140
2482.50000    0.11188
2483.00000    0.11177
2483.50000    0.11112
2484.00000    0.10995
2484.50000    0.10830
2485.00000    0.10618
2485.50000    0.10362
2486.00000    0.10061
2486.50000    0.09720
2487.00000    0.09339
2487.50000    0.08922
2488.00000    0.08472
2488.50000    0.07993
2489.00000    0.07493
2489.50000    0.06977
2490.00000    0.06452
2490.50000    0.05926
2491.00000    0.05407
2491.50000    0.04903
2492.00000    0.04421
2492.50000    0.03968
2493.00000    0.03548
2493.50000    0.03165
2494.00000    0.02821
2494.50000    0.02516
2495.00000    0.02247
2495.50000    0.02012
2496.00000    0.01805
2496.50000    0.01619
2497.00000    0.01448
2497.50000    0.01284
2498.00000    0.01119
2498.50000    0.00946
2499.00000    0.00758
2499.50000    0.00550
2500.00000    0.00316
2500.50000    0.00053
2501.00000   -0.00240
2501.50000   -0.00565
2502.00000   -0.00922
2502.50000   -0.01309
2503.00000   -0.01724
2503.50000   -0.02164
2504.00000   -0.02626
2504.50000   -0.03105
2505.00000   -0.03596
2505.50000   -0.04095
2506.00000   -0.04595
2506.50000   -0.05091
2507.00000   -0.05575
2507.50000   -0.06040
2508.00000   -0.06479
2508.50000   -0.06885
2509.00000   -0.07248
2509.50000   -0.07564
2510.00000   -0.07825
2510.50000   -0.08026
2511.00000   -0.08165
2511.50000   -0.08240
2512.00000   -0.08252
2512.50000   -0.08206
2513.00000   -0.08109
2513.50000   -0.07971
2514.00000   -0.07803
2514.50000   -0.07619
2515.00000   -0.07436
2515.50000   -0.07269
2516.00000   -0.07134
2516.50000   -0.07047
2517.00000   -0.07019
2517.50000   -0.07061
2518.00000   -0.07179
2518.50000   -0.07374
2519.00000   -0.07643
2519.50000   -0.07980
2520.00000   -0.08372
2520.50000   -0.08802
2521.00000   -0.09251
2521.50000   -0.09695
2522.00000   -0.10111
2522.50000   -0.10472
2523.00000   -0.10754
2523.50000   -0.10931
2524.00000   -0.10983
2524.50000   -0.10889
2525.00000   -0.10634
2525.50000   -0.10206
2526.00000   -0.09597
2526.50000   -0.08803
2527.00000   -0.07826
2527.50000   -0.06668
2528.00000   -0.05337
2528.50000   -0.03845
2529.00000   -0.02204
2529.50000   -0.00429
2530.00000    0.01461
2530.50000    0.03449
2531.00000    0.05515
2531.50000    0.07639
2532.00000    0.09800
2532.50000    0.11977
2533.00000    0.14149
2533.50000    0.16297
2534.00000    0.18402
2534.50000    0.20446
2535.00000    0.22414
2535.50000    0.24290
2536.00000    0.26064
2536.50000    0.27728
2537.00000    0.29275
2537.50000    0.30702
2538.00000    0.32011
2538.50000    0.33202
2539.00000    0.34282
2539.50000    0.35257
2540.00000    0.36135
2540.50000    0.36923
2541.00000    0.37630
2541.50000    0.38262
2542.00000    0.38823
2542.50000    0.39318
2543.00000    0.39745
2543.50000    0.40103
2544.00000    0.40386
2544.50000    0.40588
2545.00000    0.40699
2545.50000    0.40710
2546.00000    0.40612
2546.50000    0.40394
2547.00000    0.40051
2547.50000    0.39577
2548.00000    0.38972
2548.50000    0.38236
2549.00000    0.37375
2549.50000    0.36399
2550.00000    0.35321
2550.50000    0.34156
2551.00000    0.32921
2551.50000    0.31635
2552.00000    0.30317
2552.50000    0.28985
2553.00000    0.27655
2553.50000    0.26342
2554.00000    0.25057
2554.50000    0.23808
2555.00000    0.22599
2555.50000    0.21434
2556.00000    0.20310
2556.50000    0.19226
2557.00000    0.18176
2557.50000    0.17157
2558.00000    0.16162
2558.50000    0.15189
2559.00000    0.14233
2559.50000    0.13294
2560.00000    0.12372
2560.50000    0.11470
2561.00000    0.10592
2561.50000    0.09742
2562.00000    0.08927
2562.50000    0.08153
2563.00000    0.07427
2563.50000    0.06751
2564.00000    0.06131
2564.50000    0.05567
2565.00000    0.05058
2565.50000    0.04600
2566.00000    0.04190
2566.50000    0.03818
2567.00000    0.03476
2567.50000    0.03153
2568.00000    0.02840
2568.50000    0.02524
2569.00000    0.02197
2569.50000    0.01849
2570.00000    0.01472
2570.50000    0.01062
2571.00000    0.00615
2571.50000    0.00131
2572.00000   -0.00389
2572.50000   -0.00941
2573.00000   -0.01518
2573.50000   -0.02114
2574.00000   -0.02718
2574.50000   -0.03321
2575.00000   -0.03911
2575.50000   -0.04477
2576.00000   -0.05009
2576.50000   -0.05495
2577.00000   -0.05928
2577.50000   -0.06299
2578.00000   -0.06602
2578.50000   -0.06832
2579.00000   -0.06989
2579.50000   -0.07072
2580.00000   -0.07084
2580.50000   -0.07031
2581.00000   -0.06917
2581.50000   -0.06753
2582.00000   -0.06548
2582.50000   -0.06311
2583.00000   -0.06053
2583.50000   -0.05785
2584.00000   -0.05513
2584.50000   -0.05245
2585.00000   -0.04985
2585.50000   -0.04734
2586.00000   -0.04490
2586.50000   -0.04248
2587.00000   -0.04002
2587.50000   -0.03740
2588.00000   -0.03452
2588.50000   -0.03125
2589.00000   -0.02746
2589.50000   -0.02304
2590.00000   -0.01791
2590.50000   -0.01200
2591.00000   -0.00530
2591.50000    0.00216
2592.00000    0.01031
2592.50000    0.01900
2593.00000    0.02805
2593.50000    0.03723
2594.00000    0.04627
2594.50000    0.05488
2595.00000    0.06275
2595.50000    0.06957
2596.00000    0.07504
2596.50000    0.07889
2597.00000    0.08088
2597.50000    0.08083
2598.00000    0.07862
2598.50000    0.07417
2599.00000    0.06750
2599.50000    0.05867
2600.00000    0.04782
2600.50000    0.03515
2601.00000    0.02090
2601.50000    0.00538
2602.00000   -0.01107
2602.50000   -0.02809
2603.00000   -0.04529
2603.50000   -0.06226
2604.00000   -0.07862
2604.50000   -0.09397
2605.00000   -0.10795
2605.50000   -0.12022
2606.00000   -0.13049
2606.50000   -0.13849
2607.00000   -0.14404
2607.50000   -0.14700
2608.00000   -0.14730
2608.50000   -0.14494
2609.00000   -0.14001
2609.50000   -0.13264
2610.00000   -0.12306
2610.50000   -0.11154
2611.00000   -0.09843
2611.50000   -0.08408
2612.00000   -0.06893
2612.50000   -0.05338
2613.00000   -0.03787
2613.50000   -0.02280
2614.00000   -0.00855
2614.50000    0.00453
2615.00000    0.01616
2615.50000    0.02612
2616.00000    0.03427
2616.50000    0.04052
2617.00000    0.04487
2617.50000    0.04737
2618.00000    0.04814
2618.50000    0.04734
2619.00000    0.04519
2619.50000    0.04191
2620.00000    0.03775
2620.50000    0.03297
2621.00000    0.02782
2621.50000    0.02252
2622.00000    0.01729
2622.50000    0.01229
2623.00000    0.00770
2623.50000    0.00361
2624.00000    0.00012
2624.50000   -0.00274
2625.00000   -0.00494
2625.50000   -0.00648
2626.00000   -0.00740
2626.50000   -0.00776
2627.00000   -0.00761
2627.50000   -0.00702
2628.00000   -0.00610
2628.50000   -0.00490
2629.00000   -0.00351
2629.50000   -0.00199
2630.00000   -0.00039
2630.50000    0.00124
2631.00000    0.00291
2631.50000    0.00464
2632.00000    0.00647
2632.50000    0.00847
2633.00000    0.01076
2633.50000    0.01347
2634.00000    0.01676
2634.50000    0.02083
2635.00000    0.02585
2635.50000    0.03204
2636.00000    0.03962
2636.50000    0.04877
2637.00000    0.05968
2637.50000    0.07254
2638.00000    0.08749
2638.50000    0.10464
2639.00000    0.12410
2639.50000    0.14593
2640.00000    0.17018
2640.50000    0.19689
2641.00000    0.22605
2641.50000    0.25768
2642.00000    0.29178
2642.50000    0.32836
2643.00000    0.36742
2643.50000    0.40900
2644.00000    0.45312
2644.50000    0.49983
2645.00000    0.54920
2645.50000    0.60128
2646.00000    0.65616
2646.50000    0.71390
2647.00000    0.77458
2647.50000    0.83824
2648.00000    0.90494
2648.50000    0.97472
2649.00000    1.04759
2649.50000    1.12356
2650.00000    1.20263
2650.50000    1.28478
2651.00000    1.37000
2651.50000    1.45825
2652.00000    1.54953
2652.50000    1.64383
2653.00000    1.74116
2653.50000    1.84153
2654.00000    1.94500
2654.50000    2.05162
2655.00000    2.16148
2655.50000    2.27469
2656.00000    2.39136
2656.50000    2.51163
2657.00000    2.63564
2657.50000    2.76354
2658.00000    2.89547
2658.50000    3.03158
2659.00000    3.17201
2659.50000    3.31685
2660.00000    3.46621
2660.50000    3.62015
2661.00000    3.77871
2661.50000    3.94190
2662.00000    4.10967
2662.50000    4.28198
2663.00000    4.45870
2663.50000    4.63971
2664.00000    4.82480
2664.50000    5.01377
2665.00000    5.20635
2665.50000    5.40224
2666.00000    5.60109
2666.50000    5.80253
2667.00000    6.00613
2667.50000    6.21144
2668.00000    6.41796
2668.50000    6.62517
2669.00000    6.83247
2669.50000    7.03928
2670.00000    7.24493
2670.50000    7.44875
2671.00000    7.65002
2671.50000    7.84801
2672.00000    8.04193
2672.50000    8.23101
2673.00000    8.41443
2673.50000    8.59138
2674.00000    8.76107
2674.50000    8.92268
2675.00000    9.07545
2675.50000    9.21863
2676.00000    9.35150
2676.50000    9.47342
2677.00000    9.58376
2677.50000    9.68200
2678.00000    9.76765
2678.50000    9.84032
2679.00000    9.89968
2679.50000    9.94546
2680.00000    9.97750
2680.50000    9.99569
2681.00000   10.00000
2681.50000    9.99047
2682.00000    9.96721
2682.50000    9.93039
2683.00000    9.88027
2683.50000    9.81713
2684.00000    9.74134
2684.50000    9.65331
2685.00000    9.55350
2685.50000    9.44241
2686.00000    9.32059
2686.50000    9.18861
2687.00000    9.04709
2687.50000    8.89663
2688.00000    8.73787
2688.50000    8.57147
2689.00000    8.39807
2689.50000    8.21830
2690.00000    8.03280
2690.50000    7.84219
2691.00000    7.64707
2691.50000    7.44806
2692.00000    7.24572
2692.50000    7.04063
2693.00000    6.83337
2693.50000    6.62448
2694.00000    6.41454
2694.50000    6.20411
2695.00000    5.99375
2695.50000    5.78403
2696.00000    5.57552
2696.50000    5.36876
2697.00000    5.16431
2697.50000    4.96271
2698.00000    4.76447
2698.50000    4.57005
2699.00000    4.37991
2699.50000    4.19442
2700.00000    4.01394
2700.50000    3.83873
2701.00000    3.66903
2701.50000    3.50501
2702.00000    3.34677
2702.50000    3.19438
2703.00000    3.04784
2703.50000    2.90714
2704.00000    2.77221
2704.50000    2.64299
2705.00000    2.51937
2705.50000    2.40125
2706.00000    2.28852
2706.50000    2.18109
2707.00000    2.07884
2707.50000    1.98167
2708.00000    1.88949
2708.50000    1.80220
2709.00000    1.71970
2709.50000    1.64188
2710.00000    1.56861
2710.50000    1.49975
2711.00000    1.43515
2711.50000    1.37461
2712.00000    1.31792
2712.50000    1.26482
2713.00000    1.21505
2713.50000    1.16828
2714.00000    1.12418
2714.50000    1.08238
2715.00000    1.04249
2715.50000    1.00412
2716.00000    0.96685
2716.50000    0.93028
2717.00000    0.89402
2717.50000    0.85772
2718.00000    0.82104
2718.50000    0.78371
2719.00000    0.74551
2719.50000    0.70630
2720.00000    0.66600
2720.50000    0.62464
2721.00000    0.58231
2721.50000    0.53920
2722.00000    0.49556
2722.50000    0.45173
2723.00000    0.40811
2723.50000    0.36511
2724.00000    0.32321
2724.50000    0.28287
2725.00000    0.24455
2725.50000    0.20866
2726.00000    0.17559
2726.50000    0.14562
2727.00000    0.11900
2727.50000    0.09586
2728.00000    0.07624
2728.50000    0.06011
2729.00000    0.04733
2729.50000    0.03768
2730.00000    0.03087
2730.50000    0.02657
2731.00000    0.02439
2731.50000    0.02393
2732.00000    0.02475
2732.50000    0.02645
2733.00000    0.02862
2733.50000    0.03091
2734.00000    0.03298
2734.50000    0.03454
2735.00000    0.03537
2735.50000    0.03528
2736.00000    0.03415
2736.50000    0.03189
2737.00000    0.02848
2737.50000    0.02394
2738.00000    0.01832
2738.50000    0.01173
2739.00000    0.00430
2739.50000   -0.00382
2740.00000   -0.01244
2740.50000   -0.02136
2741.00000   -0.03038
2741.50000   -0.03927
2742.00000   -0.04782
2742.50000   -0.05583
2743.00000   -0.06311
2743.50000   -0.06948
2744.00000   -0.07478
2744.50000   -0.07892
2745.00000   -0.08178
2745.50000   -0.08333
2746.00000   -0.08355
2746.50000   -0.08244
2747.00000   -0.08005
2747.50000   -0.07646
2748.00000   -0.07175
2748.50000   -0.06604
2749.00000   -0.05945
2749.50000   -0.05211
2750.00000   -0.04415
2750.50000   -0.03569
2751.00000   -0.02685
2751.50000   -0.01774
2752.00000   -0.00847
2752.50000    0.00088
2753.00000    0.01021
2753.50000    0.01945
2754.00000    0.02853
2754.50000    0.03737
2755.00000    0.04590
2755.50000    0.05404
2756.00000    0.06171
2756.50000    0.06882
2757.00000    0.07529
2757.50000    0.08102
2758.00000    0.08592
2758.50000    0.08991
2759.00000    0.09289
2759.50000    0.09482
2760.00000    0.09562
2760.50000    0.09526
2761.00000    0.09374
2761.50000    0.09106
2762.00000    0.08727
2762.50000    0.08243
2763.00000    0.07664
2763.50000    0.07003
2764.00000    0.06275
2764.50000    0.05495
2765.00000    0.04683
2765.50000    0.03858
2766.00000    0.03037
2766.50000    0.02240
2767.00000    0.01482
2767.50000    0.00778
2768.00000    0.00140
2768.50000   -0.00427
2769.00000   -0.00917
2769.50000   -0.01332
2770.00000   -0.01678
2770.50000   -0.01965
2771.00000   -0.02204
2771.50000   -0.02414
2772.00000   -0.02613
2772.50000   -0.02821
2773.00000   -0.03058
2773.50000   -0.03342
2774.00000   -0.03690
2774.50000   -0.04115
2775.00000   -0.04625
2775.50000   -0.05224
2776.00000   -0.05908
2776.50000   -0.06671
2777.00000   -0.07498
2777.50000   -0.08371
2778.00000   -0.09267
2778.50000   -0.10160
2779.00000   -0.11022
2779.50000   -0.11825
2780.00000   -0.12542
2780.50000   -0.13146
2781.00000   -0.13616
2781.50000   -0.13934
2782.00000   -0.14088
2782.50000   -0.14069
2783.00000   -0.13878
2783.50000   -0.13518
2784.00000   -0.12999
2784.50000   -0.12335
2785.00000   -0.11544
2785.50000   -0.10647
2786.00000   -0.09666
2786.50000   -0.08627
2787.00000   -0.07551
2787.50000   -0.06464
2788.00000   -0.05387
2788.50000   -0.04339
2789.00000   -0.03339
2789.50000   -0.02401
2790.00000   -0.01539
2790.50000   -0.00761
2791.00000   -0.00075
2791.50000    0.00515
2792.00000    0.01008
2792.50000    0.01403
2793.00000    0.01705
2793.50000    0.01916
2794.00000    0.02044
2794.50000    0.02098
2795.00000    0.02087
2795.50000    0.02021
2796.00000    0.01912
2796.50000    0.01773
2797.00000    0.01617
2797.50000    0.01456
2798.00000    0.01301
2798.50000    0.01164
2799.00000    0.01056
2799.50000    0.00983
2800.00000    0.00952
2800.50000    0.00967
2801.00000    0.01031
2801.50000    0.01141
2802.00000    0.01296
2802.50000    0.01489
2803.00000    0.01715
2803.50000    0.01964
2804.00000    0.02227
2804.50000    0.02494
2805.00000    0.02754
2805.50000    0.02997
2806.00000    0.03212
2806.50000    0.03393
2807.00000    0.03530
2807.50000    0.03619
2808.00000    0.03655
2808.50000    0.03636
2809.00000    0.03560
2809.50000    0.03427
2810.00000    0.03239
2810.50000    0.02998
2811.00000    0.02708
2811.50000    0.02374
2812.00000    0.02000
2812.50000    0.01591
2813.00000    0.01155
2813.50000    0.00696
2814.00000    0.00223
2814.50000   -0.00257
2815.00000   -0.00737
2815.50000   -0.01207
2816.00000   -0.01659
2816.50000   -0.02084
2817.00000   -0.02470
2817.50000   -0.02810
2818.00000   -0.03091
2818.50000   -0.03306
2819.00000   -0.03443
2819.50000   -0.03496
2820.00000   -0.03457
2820.50000   -0.03318
2821.00000   -0.03077
2821.50000   -0.02729
2822.00000   -0.02273
2822.50000   -0.01711
2823.00000   -0.01043
2823.50000   -0.00275
2824.00000    0.00588
2824.50000    0.01538
2825.00000    0.02567
2825.50000    0.03663
2826.00000    0.04815
2826.50000    0.06010
2827.00000    0.07234
2827.50000    0.08470
2828.00000    0.09702
2828.50000    0.10912
2829.00000    0.12082
2829.50000    0.13194
2830.00000    0.14227
2830.50000    0.15163
2831.00000    0.15984
2831.50000    0.16670
2832.00000    0.17207
2832.50000    0.17581
2833.00000    0.17779
2833.50000    0.17793
2834.00000    0.17618
2834.50000    0.17253
2835.00000    0.16699
2835.50000    0.15962
2836.00000    0.15052
2836.50000    0.13981
2837.00000    0.12766
2837.50000    0.11424
2838.00000    0.09976
2838.50000    0.08443
2839.00000    0.06848
2839.50000    0.05214
2840.00000    0.03563
2840.50000    0.01919
2841.00000    0.00301
2841.50000   -0.01269
2842.00000   -0.02773
2842.50000   -0.04196
2843.00000   -0.05521
2843.50000   -0.06737
2844.00000   -0.07833
2844.50000   -0.08803
2845.00000   -0.09641
2845.50000   -0.10346
2846.00000   -0.10920
2846.50000   -0.11365
2847.00000   -0.11690
2847.50000   -0.11904
2848.00000   -0.12019
2848.50000   -0.12048
2849.00000   -0.12006
2849.50000   -0.11910
2850.00000   -0.11774
2850.50000   -0.11612
2851.00000   -0.11438
2851.50000   -0.11264
2852.00000   -0.11097
2852.50000   -0.10943
2853.00000   -0.10806
2853.50000   -0.10686
2854.00000   -0.10580
2854.50000   -0.10485
2855.00000   -0.10395
2855.50000   -0.10302
2856.00000   -0.10201
2856.50000   -0.10083
2857.00000   -0.09944
2857.50000   -0.09776
2858.00000   -0.09577
2858.50000   -0.09343
2859.00000   -0.09072
2859.50000   -0.08763
2860.00000   -0.08415
2860.50000   -0.08028
2861.00000   -0.07601
2861.50000   -0.07134
2862.00000   -0.06626
2862.50000   -0.06076
2863.00000   -0.05483
2863.50000   -0.04845
2864.00000   -0.04164
2864.50000   -0.03438
2865.00000   -0.02671
2865.50000   -0.01866
2866.00000   -0.01029
2866.50000   -0.00166
2867.00000    0.00714
2867.50000    0.01600
2868.00000    0.02482
2868.50000    0.03348
2869.00000    0.04188
2869.50000    0.04992
2870.00000    0.05753
2870.50000    0.06464
2871.00000    0.07121
2871.50000    0.07724
2872.00000    0.08271
2872.50000    0.08765
2873.00000    0.09207
2873.50000    0.09602
2874.00000    0.09950
2874.50000    0.10253
2875.00000    0.10508
2875.50000    0.10714
2876.00000    0.10863
2876.50000    0.10949
2877.00000    0.10962
2877.50000    0.10890
2878.00000    0.10723
2878.50000    0.10449
2879.00000    0.10061
2879.50000    0.09550
2880.00000    0.08915
2880.50000    0.08154
2881.00000    0.07272
2881.50000    0.06277
2882.00000    0.05181
2882.50000    0.04000
2883.00000    0.02750
2883.50000    0.01451
2884.00000    0.00124
2884.50000   -0.01210
2885.00000   -0.02532
2885.50000   -0.03821
2886.00000   -0.05059
2886.50000   -0.06230
2887.00000   -0.07315
2887.50000   -0.08301
2888.00000   -0.09173
2888.50000   -0.09915
2889.00000   -0.10514
2889.50000   -0.10956
2890.00000   -0.11226
2890.50000   -0.11310
2891.00000   -0.11198
2891.50000   -0.10877
2892.00000   -0.10339
2892.50000   -0.09579
2893.00000   -0.08597
2893.50000   -0.07394
2894.00000   -0.05979
2894.50000   -0.04364
2895.00000   -0.02566
2895.50000   -0.00606
2896.00000    0.01494
2896.50000    0.03708
2897.00000    0.06011
2897.50000    0.08379
2898.00000    0.10790
2898.50000    0.13228
2899.00000    0.15678
2899.50000    0.18132
