1200.50000    0.02205
1201.00000    0.02554
1201.50000    0.02891
1202.00000    0.03206
1202.50000    0.03488
1203.00000    0.03728
1203.50000    0.03915
1204.00000    0.04041
1204.50000    0.04101
1205.00000    0.04092
1205.50000    0.04014
1206.00000    0.03869
1206.50000    0.03664
1207.00000    0.03407
1207.50000    0.03108
1208.00000    0.02780
1208.50000    0.02433
1209.00000    0.02083
1209.50000    0.01740
1210.00000    0.01417
1210.50000    0.01124
1211.00000    0.00868
1211.50000    0.00654
1212.00000    0.00487
1212.50000    0.00367
1213.00000    0.00290
1213.50000    0.00254
1214.00000    0.00251
1214.50000    0.00273
1215.00000    0.00310
1215.50000    0.00352
1216.00000    0.00389
1216.50000    0.00408
1217.00000    0.00401
1217.50000    0.00358
1218.00000    0.00272
1218.50000    0.00135
1219.00000   -0.00055
1219.50000   -0.00300
1220.00000   -0.00602
1220.50000   -0.00957
1221.00000   -0.01362
1221.50000   -0.01810
1222.00000   -0.02295
1222.50000   -0.02807
1223.00000   -0.03338
1223.50000   -0.03876
1224.00000   -0.04412
1224.50000   -0.04935
1225.00000   -0.05435
1225.50000   -0.05903
1226.00000   -0.06332
1226.50000   -0.06713
1227.00000   -0.07042
1227.50000   -0.07315
1228.00000   -0.07529
1228.50000   -0.07683
1229.00000   -0.07778
1229.50000   -0.07815
1230.00000   -0.07796
1230.50000   -0.07726
1231.00000   -0.07607
1231.50000   -0.07444
1232.00000   -0.07242
1232.50000   -0.07004
1233.00000   -0.06735
1233.50000   -0.06437
1234.00000   -0.06113
1234.50000   -0.05767
1235.00000   -0.05399
1235.50000   -0.05012
1236.00000   -0.04606
1236.50000   -0.04184
1237.00000   -0.03745
1237.50000   -0.03293
1238.00000   -0.02829
1238.50000   -0.02357
1239.00000   -0.01880
1239.50000   -0.01402
1240.00000   -0.00929
1240.50000   -0.00465
1241.00000   -0.00018
1241.50000    0.00406
1242.00000    0.00802
1242.50000    0.01164
1243.00000    0.01487
1243.50000    0.01769
1244.00000    0.02006
1244.50000    0.02199
1245.00000    0.02351
1245.50000    0.02466
1246.00000    0.02550
1246.50000    0.02613
1247.00000    0.02663
1247.50000    0.02714
1248.00000    0.02779
1248.50000    0.02871
1249.00000    0.03005
1249.50000    0.03193
1250.00000    0.03449
1250.50000    0.03783
1251.00000    0.04204
1251.50000    0.04718
1252.00000    0.05329
1252.50000    0.06037
1253.00000    0.06839
1253.50000    0.07731
1254.00000    0.08702
1254.50000    0.09743
1255.00000    0.10839
1255.50000    0.11977
1256.00000    0.13140
1256.50000    0.14310
1257.00000    0.15472
1257.50000    0.16608
1258.00000    0.17702
1258.50000    0.18739
1259.00000    0.19707
1259.50000    0.20594
1260.00000    0.21391
1260.50000    0.22090
1261.00000    0.22686
1261.50000    0.23176
1262.00000    0.23559
1262.50000    0.23834
1263.00000    0.24002
1263.50000    0.24067
1264.00000    0.24031
1264.50000    0.23898
1265.00000    0.23673
1265.50000    0.23362
1266.00000    0.22968
1266.50000    0.22497
1267.00000    0.21955
1267.50000    0.21347
1268.00000    0.20678
1268.50000    0.19955
1269.00000    0.19183
1269.50000    0.18369
1270.00000    0.17519
1270.50000    0.16641
1271.00000    0.15742
1271.50000    0.14830
1272.00000    0.13912
1272.50000    0.12998
1273.00000    0.12095
1273.50000    0.11210
1274.00000    0.10352
1274.50000    0.09528
1275.00000    0.08742
1275.50000    0.07999
1276.00000    0.07304
1276.50000    0.06658
1277.00000    0.06061
1277.50000    0.05511
1278.00000    0.05005
1278.50000    0.04539
1279.00000    0.04105
1279.50000    0.03695
1280.00000    0.03302
1280.50000    0.02914
1281.00000    0.02523
1281.50000    0.02118
1282.00000    0.01691
1282.50000    0.01233
1283.00000    0.00737
1283.50000    0.00199
1284.00000   -0.00384
1284.50000   -0.01012
1285.00000   -0.01684
1285.50000   -0.02393
1286.00000   -0.03132
1286.50000   -0.03893
1287.00000   -0.04663
1287.50000   -0.05428
1288.00000   -0.06176
1288.50000   -0.06891
1289.00000   -0.07559
1289.50000   -0.08166
1290.00000   -0.08700
1290.50000   -0.09151
1291.00000   -0.09511
1291.50000   -0.09773
1292.00000   -0.09936
1292.50000   -0.10001
1293.00000   -0.09970
1293.50000   -0.09850
1294.00000   -0.09652
1294.50000   -0.09385
1295.00000   -0.09063
1295.50000   -0.08701
1296.00000   -0.08312
1296.50000   -0.07911
1297.00000   -0.07512
1297.50000   -0.07126
1298.00000   -0.06764
1298.50000   -0.06434
1299.00000   -0.06143
1299.50000   -0.05892
1300.00000   -0.05685
1300.50000   -0.05517
1301.00000   -0.05387
1301.50000   -0.05287
1302.00000   -0.05212
1302.50000   -0.05152
1303.00000   -0.05100
1303.50000   -0.05046
1304.00000   -0.04982
1304.50000   -0.04902
1305.00000   -0.04797
1305.50000   -0.04664
1306.00000   -0.04498
1306.50000   -0.04297
1307.00000   -0.04059
1307.50000   -0.03784
1308.00000   -0.03472
1308.50000   -0.03124
1309.00000   -0.02742
1309.50000   -0.02326
1310.00000   -0.01878
1310.50000   -0.01397
1311.00000   -0.00883
1311.50000   -0.00334
1312.00000    0.00253
1312.50000    0.00882
1313.00000    0.01557
1313.50000    0.02283
1314.00000    0.03065
1314.50000    0.03910
1315.00000    0.04821
1315.50000    0.05804
1316.00000    0.06861
1316.50000    0.07996
1317.00000    0.09209
1317.50000    0.10499
1318.00000    0.11863
1318.50000    0.13298
1319.00000    0.14799
1319.50000    0.16357
1320.00000    0.17965
1320.50000    0.19616
1321.00000    0.21301
1321.50000    0.23011
1322.00000    0.24740
1322.50000    0.26482
1323.00000    0.28232
1323.50000    0.29990
1324.00000    0.31754
1324.50000    0.33529
1325.00000    0.35319
1325.50000    0.37133
1326.00000    0.38980
1326.50000    0.40874
1327.00000    0.42828
1327.50000    0.44859
1328.00000    0.46983
1328.50000    0.49216
1329.00000    0.51575
1329.50000    0.54075
1330.00000    0.56730
1330.50000    0.59550
1331.00000    0.62545
1331.50000    0.65719
1332.00000    0.69075
1332.50000    0.72611
1333.00000    0.76320
1333.50000    0.80192
1334.00000    0.84213
1334.50000    0.88365
1335.00000    0.92625
1335.50000    0.96968
1336.00000    1.01367
1336.50000    1.05788
1337.00000    1.10200
1337.50000    1.14568
1338.00000    1.18854
1338.50000    1.23024
1339.00000    1.27040
1339.50000    1.30867
1340.00000    1.34471
1340.50000    1.37817
1341.00000    1.40875
1341.50000    1.43615
1342.00000    1.46011
1342.50000    1.48040
1343.00000    1.49682
1343.50000    1.50918
1344.00000    1.51737
1344.50000    1.52128
1345.00000    1.52085
1345.50000    1.51606
1346.00000    1.50694
1346.50000    1.49353
1347.00000    1.47593
1347.50000    1.45428
1348.00000    1.42873
1348.50000    1.39949
1349.00000    1.36677
1349.50000    1.33085
1350.00000    1.29199
1350.50000    1.25051
1351.00000    1.20672
1351.50000    1.16095
1352.00000    1.11356
1352.50000    1.06490
1353.00000    1.01532
1353.50000    0.96519
1354.00000    0.91485
1354.50000    0.86465
1355.00000    0.81491
1355.50000    0.76594
1356.00000    0.71803
1356.50000    0.67146
1357.00000    0.62645
1357.50000    0.58323
1358.00000    0.54196
1358.50000    0.50280
1359.00000    0.46585
1359.50000    0.43120
1360.00000    0.39889
1360.50000    0.36893
1361.00000    0.34130
1361.50000    0.31595
1362.00000    0.29279
1362.50000    0.27171
1363.00000    0.25257
1363.50000    0.23523
1364.00000    0.21951
1364.50000    0.20522
1365.00000    0.19217
1365.50000    0.18016
1366.00000    0.16900
1366.50000    0.15851
1367.00000    0.14849
1367.50000    0.13880
1368.00000    0.12930
1368.50000    0.11986
1369.00000    0.11041
1369.50000    0.10087
1370.00000    0.09122
1370.50000    0.08146
1371.00000    0.07162
1371.50000    0.06176
1372.00000    0.05196
1372.50000    0.04234
1373.00000    0.03301
1373.50000    0.02411
1374.00000    0.01580
1374.50000    0.00820
1375.00000    0.00146
1375.50000   -0.00430
1376.00000   -0.00898
1376.50000   -0.01249
1377.00000   -0.01480
1377.50000   -0.01588
1378.00000   -0.01574
1378.50000   -0.01444
1379.00000   -0.01207
1379.50000   -0.00875
1380.00000   -0.00463
1380.50000    0.00012
1381.00000    0.00530
1381.50000    0.01071
1382.00000    0.01611
1382.50000    0.02131
1383.00000    0.02608
1383.50000    0.03025
1384.00000    0.03362
1384.50000    0.03607
1385.00000    0.03748
1385.50000    0.03776
1386.00000    0.03689
1386.50000    0.03485
1387.00000    0.03168
1387.50000    0.02745
1388.00000    0.02227
1388.50000    0.01626
1389.00000    0.00957
1389.50000    0.00239
1390.00000   -0.00509
1390.50000   -0.01269
1391.00000   -0.02019
1391.50000   -0.02741
1392.00000   -0.03415
1392.50000   -0.04023
1393.00000   -0.04551
1393.50000   -0.04982
1394.00000   -0.05307
1394.50000   -0.05515
1395.00000   -0.05599
1395.50000   -0.05557
1396.00000   -0.05386
1396.50000   -0.05089
1397.00000   -0.04669
1397.50000   -0.04133
1398.00000   -0.03493
1398.50000   -0.02758
1399.00000   -0.01945
1399.50000   -0.01070
1400.00000   -0.00152
1400.50000    0.00790
1401.00000    0.01734
1401.50000    0.02656
1402.00000    0.03535
1402.50000    0.04347
1403.00000    0.05070
1403.50000    0.05683
1404.00000    0.06167
1404.50000    0.06503
1405.00000    0.06678
1405.50000    0.06681
1406.00000    0.06504
1406.50000    0.06143
1407.00000    0.05600
1407.50000    0.04881
1408.00000    0.03994
1408.50000    0.02955
1409.00000    0.01780
1409.50000    0.00493
1410.00000   -0.00883
1410.50000   -0.02321
1411.00000   -0.03790
1411.50000   -0.05262
1412.00000   -0.06707
1412.50000   -0.08095
1413.00000   -0.09398
1413.50000   -0.10590
1414.00000   -0.11649
1414.50000   -0.12554
1415.00000   -0.13289
1415.50000   -0.13840
1416.00000   -0.14199
1416.50000   -0.14360
1417.00000   -0.14321
1417.50000   -0.14083
1418.00000   -0.13650
1418.50000   -0.13029
1419.00000   -0.12229
1419.50000   -0.11261
1420.00000   -0.10136
1420.50000   -0.08869
1421.00000   -0.07473
1421.50000   -0.05962
1422.00000   -0.04351
1422.50000   -0.02655
1423.00000   -0.00889
1423.50000    0.00932
1424.00000    0.02793
1424.50000    0.04677
1425.00000    0.06571
1425.50000    0.08457
1426.00000    0.10320
1426.50000    0.12143
1427.00000    0.13912
1427.50000    0.15611
1428.00000    0.17224
1428.50000    0.18739
1429.00000    0.20143
1429.50000    0.21424
1430.00000    0.22575
1430.50000    0.23588
1431.00000    0.24459
1431.50000    0.25186
1432.00000    0.25771
1432.50000    0.26218
1433.00000    0.26531
1433.50000    0.26720
1434.00000    0.26794
1434.50000    0.26765
1435.00000    0.26644
1435.50000    0.26445
1436.00000    0.26179
1436.50000    0.25859
1437.00000    0.25494
1437.50000    0.25094
1438.00000    0.24665
1438.50000    0.24215
1439.00000    0.23744
1439.50000    0.23256
1440.00000    0.22748
1440.50000    0.22219
1441.00000    0.21665
1441.50000    0.21082
1442.00000    0.20464
1442.50000    0.19808
1443.00000    0.19108
1443.50000    0.18362
1444.00000    0.17568
1444.50000    0.16726
1445.00000    0.15837
1445.50000    0.14904
1446.00000    0.13933
1446.50000    0.12929
1447.00000    0.11902
1447.50000    0.10861
1448.00000    0.09816
1448.50000    0.08777
1449.00000    0.07756
1449.50000    0.06762
1450.00000    0.05806
1450.50000    0.04896
1451.00000    0.04038
1451.50000    0.03239
1452.00000    0.02502
1452.50000    0.01829
1453.00000    0.01220
1453.50000    0.00674
1454.00000    0.00187
1454.50000   -0.00244
1455.00000   -0.00626
1455.50000   -0.00963
1456.00000   -0.01263
1456.50000   -0.01532
1457.00000   -0.01776
1457.50000   -0.02001
1458.00000   -0.02211
1458.50000   -0.02410
1459.00000   -0.02601
1459.50000   -0.02785
1460.00000   -0.02961
1460.50000   -0.03128
1461.00000   -0.03283
1461.50000   -0.03422
1462.00000   -0.03542
1462.50000   -0.03637
1463.00000   -0.03703
1463.50000   -0.03734
1464.00000   -0.03728
1464.50000   -0.03682
1465.00000   -0.03592
1465.50000   -0.03460
1466.00000   -0.03286
1466.50000   -0.03073
1467.00000   -0.02826
1467.50000   -0.02550
1468.00000   -0.02252
1468.50000   -0.01942
1469.00000   -0.01626
1469.50000   -0.01315
1470.00000   -0.01016
1470.50000   -0.00738
1471.00000   -0.00487
1471.50000   -0.00268
1472.00000   -0.00083
1472.50000    0.00065
1473.00000    0.00179
1473.50000    0.00262
1474.00000    0.00318
1474.50000    0.00355
1475.00000    0.00382
1475.50000    0.00405
1476.00000    0.00436
1476.50000    0.00483
1477.00000    0.00554
1477.50000    0.00655
1478.00000    0.00792
1478.50000    0.00967
1479.00000    0.01180
1479.50000    0.01430
1480.00000    0.01711
1480.50000    0.02017
1481.00000    0.02339
1481.50000    0.02666
1482.00000    0.02988
1482.50000    0.03292
1483.00000    0.03568
1483.50000    0.03805
1484.00000    0.03995
1484.50000    0.04131
1485.00000    0.04207
1485.50000    0.04222
1486.00000    0.04174
1486.50000    0.04067
1487.00000    0.03905
1487.50000    0.03694
1488.00000    0.03442
1488.50000    0.03158
1489.00000    0.02852
1489.50000    0.02533
1490.00000    0.02211
1490.50000    0.01894
1491.00000    0.01590
1491.50000    0.01305
1492.00000    0.01043
1492.50000    0.00807
1493.00000    0.00600
1493.50000    0.00421
1494.00000    0.00270
1494.50000    0.00146
1495.00000    0.00046
1495.50000   -0.00032
1496.00000   -0.00090
1496.50000   -0.00132
1497.00000   -0.00159
1497.50000   -0.00174
1498.00000   -0.00177
1498.50000   -0.00171
1499.00000   -0.00156
1499.50000   -0.00132
1500.00000   -0.00101
1500.50000   -0.00064
1501.00000   -0.00020
1501.50000    0.00029
1502.00000    0.00081
1502.50000    0.00135
1503.00000    0.00188
1503.50000    0.00237
1504.00000    0.00280
1504.50000    0.00313
1505.00000    0.00332
1505.50000    0.00333
1506.00000    0.00313
1506.50000    0.00268
1507.00000    0.00194
1507.50000    0.00088
1508.00000   -0.00054
1508.50000   -0.00234
1509.00000   -0.00454
1509.50000   -0.00717
1510.00000   -0.01023
1510.50000   -0.01372
1511.00000   -0.01765
1511.50000   -0.02201
1512.00000   -0.02676
1512.50000   -0.03187
1513.00000   -0.03730
1513.50000   -0.04299
1514.00000   -0.04885
1514.50000   -0.05480
1515.00000   -0.06074
1515.50000   -0.06655
1516.00000   -0.07211
1516.50000   -0.07727
1517.00000   -0.08190
1517.50000   -0.08587
1518.00000   -0.08904
1518.50000   -0.09129
1519.00000   -0.09251
1519.50000   -0.09262
1520.00000   -0.09154
1520.50000   -0.08926
1521.00000   -0.08575
1521.50000   -0.08107
1522.00000   -0.07526
1522.50000   -0.06843
1523.00000   -0.06071
1523.50000   -0.05223
1524.00000   -0.04318
1524.50000   -0.03372
1525.00000   -0.02405
1525.50000   -0.01435
1526.00000   -0.00478
1526.50000    0.00448
1527.00000    0.01331
1527.50000    0.02158
1528.00000    0.02922
1528.50000    0.03616
1529.00000    0.04239
1529.50000    0.04788
1530.00000    0.05267
1530.50000    0.05680
1531.00000    0.06030
1531.50000    0.06324
1532.00000    0.06568
1532.50000    0.06767
1533.00000    0.06923
1533.50000    0.07041
1534.00000    0.07119
1534.50000    0.07159
1535.00000    0.07156
1535.50000    0.07106
1536.00000    0.07005
1536.50000    0.06847
1537.00000    0.06625
1537.50000    0.06335
1538.00000    0.05974
1538.50000    0.05538
1539.00000    0.05029
1539.50000    0.04449
1540.00000    0.03803
1540.50000    0.03101
1541.00000    0.02352
1541.50000    0.01571
1542.00000    0.00772
1542.50000   -0.00028
1543.00000   -0.00812
1543.50000   -0.01564
1544.00000   -0.02269
1544.50000   -0.02912
1545.00000   -0.03484
1545.50000   -0.03975
1546.00000   -0.04382
1546.50000   -0.04703
1547.00000   -0.04940
1547.50000   -0.05099
1548.00000   -0.05187
1548.50000   -0.05215
1549.00000   -0.05195
1549.50000   -0.05138
1550.00000   -0.05057
1550.50000   -0.04964
1551.00000   -0.04868
1551.50000   -0.04776
1552.00000   -0.04693
1552.50000   -0.04620
1553.00000   -0.04556
1553.50000   -0.04494
1554.00000   -0.04426
1554.50000   -0.04342
1555.00000   -0.04226
1555.50000   -0.04065
1556.00000   -0.03843
1556.50000   -0.03544
1557.00000   -0.03151
1557.50000   -0.02653
1558.00000   -0.02035
1558.50000   -0.01288
1559.00000   -0.00405
1559.50000    0.00621
1560.00000    0.01793
1560.50000    0.03111
1561.00000    0.04574
1561.50000    0.06183
1562.00000    0.07933
1562.50000    0.09823
1563.00000    0.11852
1563.50000    0.14019
1564.00000    0.16328
1564.50000    0.18781
1565.00000    0.21387
1565.50000    0.24156
1566.00000    0.27101
1566.50000    0.30239
1567.00000    0.33589
1567.50000    0.37174
1568.00000    0.41017
1568.50000    0.45143
1569.00000    0.49578
1569.50000    0.54348
1570.00000    0.59480
1570.50000    0.64997
1571.00000    0.70923
1571.50000    0.77277
1572.00000    0.84077
1572.50000    0.91335
1573.00000    0.99063
1573.50000    1.07264
1574.00000    1.15938
1574.50000    1.25079
1575.00000    1.34678
1575.50000    1.44715
1576.00000    1.55167
1576.50000    1.66004
1577.00000    1.77189
1577.50000    1.88676
1578.00000    2.00414
1578.50000    2.12344
1579.00000    2.24400
1579.50000    2.36509
1580.00000    2.48591
1580.50000    2.60559
1581.00000    2.72321
1581.50000    2.83781
1582.00000    2.94838
1582.50000    3.05389
1583.00000    3.15330
1583.50000    3.24557
1584.00000    3.32969
1584.50000    3.40467
1585.00000    3.46961
1585.50000    3.52366
1586.00000    3.56608
1586.50000    3.59626
1587.00000    3.61370
1587.50000    3.61806
1588.00000    3.60917
1588.50000    3.58701
1589.00000    3.55173
1589.50000    3.50367
1590.00000    3.44332
1590.50000    3.37132
1591.00000    3.28848
1591.50000    3.19572
1592.00000    3.09407
1592.50000    2.98466
1593.00000    2.86869
1593.50000    2.74739
1594.00000    2.62202
1594.50000    2.49383
1595.00000    2.36403
1595.50000    2.23380
1596.00000    2.10423
1596.50000    1.97633
1597.00000    1.85100
1597.50000    1.72905
1598.00000    1.61115
1598.50000    1.49785
1599.00000    1.38958
1599.50000    1.28666
1600.00000    1.18927
1600.50000    1.09753
1601.00000    1.01143
1601.50000    0.93089
1602.00000    0.85579
1602.50000    0.78591
1603.00000    0.72103
1603.50000    0.66086
1604.00000    0.60511
1604.50000    0.55348
1605.00000    0.50567
1605.50000    0.46138
1606.00000    0.42032
1606.50000    0.38221
1607.00000    0.34682
1607.50000    0.31391
1608.00000    0.28328
1608.50000    0.25477
1609.00000    0.22823
1609.50000    0.20353
1610.00000    0.18060
1610.50000    0.15938
1611.00000    0.13982
1611.50000    0.12190
1612.00000    0.10564
1612.50000    0.09103
1613.00000    0.07812
1613.50000    0.06692
1614.00000    0.05745
1614.50000    0.04974
1615.00000    0.04379
1615.50000    0.03957
1616.00000    0.03706
1616.50000    0.03618
1617.00000    0.03684
1617.50000    0.03890
1618.00000    0.04222
1618.50000    0.04660
1619.00000    0.05182
1619.50000    0.05767
1620.00000    0.06388
1620.50000    0.07021
1621.00000    0.07641
1621.50000    0.08222
1622.00000    0.08744
1622.50000    0.09187
1623.00000    0.09533
1623.50000    0.09771
1624.00000    0.09892
1624.50000    0.09892
1625.00000    0.09769
1625.50000    0.09528
1626.00000    0.09176
1626.50000    0.08720
1627.00000    0.08172
1627.50000    0.07544
1628.00000    0.06849
1628.50000    0.06097
1629.00000    0.05300
1629.50000    0.04467
1630.00000    0.03605
1630.50000    0.02719
1631.00000    0.01810
1631.50000    0.00880
1632.00000   -0.00072
1632.50000   -0.01049
1633.00000   -0.02054
1633.50000   -0.03089
1634.00000   -0.04157
1634.50000   -0.05257
1635.00000   -0.06386
1635.50000   -0.07541
1636.00000   -0.08712
1636.50000   -0.09889
1637.00000   -0.11057
1637.50000   -0.12199
1638.00000   -0.13293
1638.50000   -0.14320
1639.00000   -0.15255
1639.50000   -0.16076
1640.00000   -0.16759
1640.50000   -0.17283
1641.00000   -0.17630
1641.50000   -0.17784
1642.00000   -0.17732
1642.50000   -0.17466
1643.00000   -0.16984
1643.50000   -0.16288
1644.00000   -0.15384
1644.50000   -0.14284
1645.00000   -0.13004
1645.50000   -0.11565
1646.00000   -0.09990
1646.50000   -0.08306
1647.00000   -0.06541
1647.50000   -0.04725
1648.00000   -0.02889
1648.50000   -0.01063
1649.00000    0.00724
1649.50000    0.02445
1650.00000    0.04073
1650.50000    0.05587
1651.00000    0.06965
1651.50000    0.08191
1652.00000    0.09250
1652.50000    0.10132
1653.00000    0.10829
1653.50000    0.11337
1654.00000    0.11653
1654.50000    0.11779
1655.00000    0.11719
1655.50000    0.11476
1656.00000    0.11059
1656.50000    0.10477
1657.00000    0.09739
1657.50000    0.08856
1658.00000    0.07842
1658.50000    0.06709
1659.00000    0.05471
1659.50000    0.04144
1660.00000    0.02743
1660.50000    0.01285
1661.00000   -0.00213
1661.50000   -0.01732
1662.00000   -0.03253
1662.50000   -0.04755
1663.00000   -0.06217
1663.50000   -0.07618
1664.00000   -0.08935
1664.50000   -0.10147
1665.00000   -0.11230
1665.50000   -0.12164
1666.00000   -0.12928
1666.50000   -0.13504
1667.00000   -0.13875
1667.50000   -0.14027
1668.00000   -0.13950
1668.50000   -0.13636
1669.00000   -0.13083
1669.50000   -0.12292
1670.00000   -0.11269
1670.50000   -0.10024
1671.00000   -0.08573
1671.50000   -0.06933
1672.00000   -0.05128
1672.50000   -0.03182
1673.00000   -0.01123
1673.50000    0.01021
1674.00000    0.03219
1674.50000    0.05443
1675.00000    0.07664
1675.50000    0.09857
1676.00000    0.11997
1676.50000    0.14065
1677.00000    0.16042
1677.50000    0.17918
1678.00000    0.19680
1678.50000    0.21326
1679.00000    0.22852
1679.50000    0.24260
1680.00000    0.25554
1680.50000    0.26740
1681.00000    0.27826
1681.50000    0.28820
1682.00000    0.29729
1682.50000    0.30561
1683.00000    0.31322
1683.50000    0.32015
1684.00000    0.32641
1684.50000    0.33198
1685.00000    0.33683
1685.50000    0.34087
1686.00000    0.34402
1686.50000    0.34615
1687.00000    0.34713
1687.50000    0.34682
1688.00000    0.34506
1688.50000    0.34173
1689.00000    0.33668
1689.50000    0.32982
1690.00000    0.32107
1690.50000    0.31039
1691.00000    0.29777
1691.50000    0.28325
1692.00000    0.26694
1692.50000    0.24896
1693.00000    0.22951
1693.50000    0.20882
1694.00000    0.18717
1694.50000    0.16486
1695.00000    0.14225
1695.50000    0.11968
1696.00000    0.09753
1696.50000    0.07617
1697.00000    0.05595
1697.50000    0.03723
1698.00000    0.02030
1698.50000    0.00544
1699.00000   -0.00714
1699.50000   -0.01726
1700.00000   -0.02484
1700.50000   -0.02981
1701.00000   -0.03221
1701.50000   -0.03212
1702.00000   -0.02969
1702.50000   -0.02511
1703.00000   -0.01865
1703.50000   -0.01061
1704.00000   -0.00131
1704.50000    0.00889
1705.00000    0.01961
1705.50000    0.03049
1706.00000    0.04116
1706.50000    0.05128
1707.00000    0.06052
1707.50000    0.06862
1708.00000    0.07535
1708.50000    0.08052
1709.00000    0.08402
1709.50000    0.08579
1710.00000    0.08583
1710.50000    0.08418
1711.00000    0.08097
1711.50000    0.07634
1712.00000    0.07048
1712.50000    0.06361
1713.00000    0.05598
1713.50000    0.04782
1714.00000    0.03940
1714.50000    0.03094
1715.00000    0.02266
1715.50000    0.01477
1716.00000    0.00741
1716.50000    0.00072
1717.00000   -0.00523
1717.50000   -0.01039
1718.00000   -0.01475
1718.50000   -0.01834
1719.00000   -0.02121
1719.50000   -0.02345
1720.00000   -0.02517
1720.50000   -0.02646
1721.00000   -0.02745
1721.50000   -0.02824
1722.00000   -0.02894
1722.50000   -0.02963
1723.00000   -0.03037
1723.50000   -0.03121
1724.00000   -0.03217
1724.50000   -0.03324
1725.00000   -0.03439
1725.50000   -0.03560
1726.00000   -0.03682
1726.50000   -0.03797
1727.00000   -0.03901
1727.50000   -0.03989
1728.00000   -0.04055
1728.50000   -0.04096
1729.00000   -0.04110
1729.50000   -0.04097
1730.00000   -0.04059
1730.50000   -0.03999
1731.00000   -0.03922
1731.50000   -0.03833
1732.00000   -0.03738
1732.50000   -0.03644
1733.00000   -0.03557
1733.50000   -0.03484
1734.00000   -0.03427
1734.50000   -0.03390
1735.00000   -0.03372
1735.50000   -0.03373
1736.00000   -0.03388
1736.50000   -0.03412
1737.00000   -0.03436
1737.50000   -0.03451
1738.00000   -0.03445
1738.50000   -0.03409
1739.00000   -0.03329
1739.50000   -0.03195
1740.00000   -0.02997
1740.50000   -0.02726
1741.00000   -0.02377
1741.50000   -0.01944
1742.00000   -0.01426
1742.50000   -0.00824
1743.00000   -0.00141
1743.50000    0.00615
1744.00000    0.01437
1744.50000    0.02313
1745.00000    0.03231
1745.50000    0.04176
1746.00000    0.05135
1746.50000    0.06090
1747.00000    0.07028
1747.50000    0.07933
1748.00000    0.08791
1748.50000    0.09589
1749.00000    0.10315
1749.50000    0.10959
1750.00000    0.11512
1750.50000    0.11969
1751.00000    0.12324
1751.50000    0.12576
1752.00000    0.12722
1752.50000    0.12763
1753.00000    0.12702
1753.50000    0.12542
1754.00000    0.12288
1754.50000    0.11945
1755.00000    0.11521
1755.50000    0.11021
1756.00000    0.10455
1756.50000    0.09829
1757.00000    0.09152
1757.50000    0.08433
1758.00000    0.07679
1758.50000    0.06897
1759.00000    0.06096
1759.50000    0.05280
1760.00000    0.04457
1760.50000    0.03631
1761.00000    0.02806
1761.50000    0.01986
1762.00000    0.01172
1762.50000    0.00366
1763.00000   -0.00432
1763.50000   -0.01221
1764.00000   -0.02002
1764.50000   -0.02776
1765.00000   -0.03544
1765.50000   -0.04305
1766.00000   -0.05062
1766.50000   -0.05812
1767.00000   -0.06554
1767.50000   -0.07286
1768.00000   -0.08004
1768.50000   -0.08704
1769.00000   -0.09378
1769.50000   -0.10019
1770.00000   -0.10619
1770.50000   -0.11170
1771.00000   -0.11660
1771.50000   -0.12081
1772.00000   -0.12424
1772.50000   -0.12680
1773.00000   -0.12842
1773.50000   -0.12905
1774.00000   -0.12866
1774.50000   -0.12723
1775.00000   -0.12477
1775.50000   -0.12134
1776.00000   -0.11700
1776.50000   -0.11184
1777.00000   -0.10599
1777.50000   -0.09958
1778.00000   -0.09275
1778.50000   -0.08568
1779.00000   -0.07852
1779.50000   -0.07143
1780.00000   -0.06457
1780.50000   -0.05807
1781.00000   -0.05204
1781.50000   -0.04657
1782.00000   -0.04172
1782.50000   -0.03753
1783.00000   -0.03400
1783.50000   -0.03110
1784.00000   -0.02879
1784.50000   -0.02699
1785.00000   -0.02561
1785.50000   -0.02455
1786.00000   -0.02370
1786.50000   -0.02295
1787.00000   -0.02219
1787.50000   -0.02132
1788.00000   -0.02024
1788.50000   -0.01888
1789.00000   -0.01718
1789.50000   -0.01509
1790.00000   -0.01260
1790.50000   -0.00968
1791.00000   -0.00635
1791.50000   -0.00261
1792.00000    0.00150
1792.50000    0.00595
1793.00000    0.01070
1793.50000    0.01571
1794.00000    0.02094
1794.50000    0.02634
1795.00000    0.03187
1795.50000    0.03750
1796.00000    0.04316
1796.50000    0.04883
1797.00000    0.05445
1797.50000    0.05996
1798.00000    0.06532
1798.50000    0.07046
1799.00000    0.07530
1799.50000    0.07978
1800.00000    0.08382
1800.50000    0.08734
1801.00000    0.09025
1801.50000    0.09248
1802.00000    0.09395
1802.50000    0.09460
1803.00000    0.09437
1803.50000    0.09322
1804.00000    0.09112
1804.50000    0.08807
1805.00000    0.08407
1805.50000    0.07914
1806.00000    0.07334
1806.50000    0.06671
1807.00000    0.05935
1807.50000    0.05132
1808.00000    0.04274
1808.50000    0.03370
1809.00000    0.02432
1809.50000    0.01471
1810.00000    0.00499
1810.50000   -0.00474
1811.00000   -0.01436
1811.50000   -0.02375
1812.00000   -0.03281
1812.50000   -0.04143
1813.00000   -0.04951
1813.50000   -0.05695
1814.00000   -0.06365
1814.50000   -0.06952
1815.00000   -0.07448
1815.50000   -0.07845
1816.00000   -0.08137
1816.50000   -0.08318
1817.00000   -0.08385
1817.50000   -0.08337
1818.00000   -0.08174
1818.50000   -0.07899
1819.00000   -0.07517
1819.50000   -0.07036
1820.00000   -0.06468
1820.50000   -0.05824
1821.00000   -0.05119
1821.50000   -0.04370
1822.00000   -0.03593
1822.50000   -0.02806
1823.00000   -0.02027
1823.50000   -0.01271
1824.00000   -0.00553
1824.50000    0.00114
1825.00000    0.00723
1825.50000    0.01266
1826.00000    0.01741
1826.50000    0.02151
1827.00000    0.02498
1827.50000    0.02790
1828.00000    0.03038
1828.50000    0.03254
1829.00000    0.03451
1829.50000    0.03642
1830.00000    0.03840
1830.50000    0.04056
1831.00000    0.04302
1831.50000    0.04584
1832.00000    0.04906
1832.50000    0.05270
1833.00000    0.05673
1833.50000    0.06108
1834.00000    0.06567
1834.50000    0.07039
1835.00000    0.07508
1835.50000    0.07959
1836.00000    0.08375
1836.50000    0.08740
1837.00000    0.09035
1837.50000    0.09246
1838.00000    0.09358
1838.50000    0.09360
1839.00000    0.09241
1839.50000    0.08996
1840.00000    0.08619
1840.50000    0.08111
1841.00000    0.07473
1841.50000    0.06710
1842.00000    0.05830
1842.50000    0.04842
1843.00000    0.03759
1843.50000    0.02593
1844.00000    0.01360
1844.50000    0.00076
1845.00000   -0.01242
1845.50000   -0.02575
1846.00000   -0.03906
1846.50000   -0.05217
1847.00000   -0.06489
1847.50000   -0.07706
1848.00000   -0.08850
1848.50000   -0.09907
1849.00000   -0.10863
1849.50000   -0.11707
1850.00000   -0.12428
1850.50000   -0.13019
1851.00000   -0.13476
1851.50000   -0.13796
1852.00000   -0.13980
1852.50000   -0.14031
1853.00000   -0.13955
1853.50000   -0.13760
1854.00000   -0.13455
1854.50000   -0.13053
1855.00000   -0.12564
1855.50000   -0.12002
1856.00000   -0.11381
1856.50000   -0.10712
1857.00000   -0.10008
1857.50000   -0.09278
1858.00000   -0.08532
1858.50000   -0.07777
1859.00000   -0.07018
1859.50000   -0.06261
1860.00000   -0.05507
1860.50000   -0.04757
1861.00000   -0.04012
1861.50000   -0.03272
1862.00000   -0.02535
1862.50000   -0.01801
1863.00000   -0.01070
1863.50000   -0.00341
1864.00000    0.00386
1864.50000    0.01108
1865.00000    0.01825
1865.50000    0.02534
1866.00000    0.03231
1866.50000    0.03915
1867.00000    0.04580
1867.50000    0.05224
1868.00000    0.05844
1868.50000    0.06436
1869.00000    0.06998
1869.50000    0.07528
1870.00000    0.08023
1870.50000    0.08482
1871.00000    0.08904
1871.50000    0.09286
1872.00000    0.09628
1872.50000    0.09926
1873.00000    0.10179
1873.50000    0.10384
1874.00000    0.10536
1874.50000    0.10634
1875.00000    0.10672
1875.50000    0.10646
1876.00000    0.10554
1876.50000    0.10393
1877.00000    0.10161
1877.50000    0.09858
1878.00000    0.09486
1878.50000    0.09050
1879.00000    0.08555
1879.50000    0.08010
1880.00000    0.07426
1880.50000    0.06817
1881.00000    0.06198
1881.50000    0.05585
1882.00000    0.04995
1882.50000    0.04447
1883.00000    0.03956
1883.50000    0.03539
1884.00000    0.03211
1884.50000    0.02982
1885.00000    0.02861
1885.50000    0.02854
1886.00000    0.02962
1886.50000    0.03183
1887.00000    0.03509
1887.50000    0.03932
1888.00000    0.04437
1888.50000    0.05010
1889.00000    0.05631
1889.50000    0.06282
1890.00000    0.06941
1890.50000    0.07589
1891.00000    0.08207
1891.50000    0.08777
1892.00000    0.09283
1892.50000    0.09713
1893.00000    0.10056
1893.50000    0.10306
1894.00000    0.10459
1894.50000    0.10513
1895.00000    0.10469
1895.50000    0.10331
1896.00000    0.10104
1896.50000    0.09792
1897.00000    0.09401
1897.50000    0.08938
1898.00000    0.08406
1898.50000    0.07810
1899.00000    0.07152
1899.50000    0.06434
1900.00000    0.05655
1900.50000    0.04815
1901.00000    0.03911
1901.50000    0.02941
1902.00000    0.01902
1902.50000    0.00795
1903.00000   -0.00382
1903.50000   -0.01626
1904.00000   -0.02934
1904.50000   -0.04298
1905.00000   -0.05710
1905.50000   -0.07156
1906.00000   -0.08621
1906.50000   -0.10089
1907.00000   -0.11539
1907.50000   -0.12952
1908.00000   -0.14306
1908.50000   -0.15581
1909.00000   -0.16758
1909.50000   -0.17820
1910.00000   -0.18751
1910.50000   -0.19542
1911.00000   -0.20185
1911.50000   -0.20677
1912.00000   -0.21017
1912.50000   -0.21211
1913.00000   -0.21265
1913.50000   -0.21191
1914.00000   -0.21000
1914.50000   -0.20706
1915.00000   -0.20324
1915.50000   -0.19866
1916.00000   -0.19346
1916.50000   -0.18775
1917.00000   -0.18162
1917.50000   -0.17512
1918.00000   -0.16829
1918.50000   -0.16113
1919.00000   -0.15363
1919.50000   -0.14574
1920.00000   -0.13739
1920.50000   -0.12853
1921.00000   -0.11905
1921.50000   -0.10890
1922.00000   -0.09799
1922.50000   -0.08628
1923.00000   -0.07372
1923.50000   -0.06030
1924.00000   -0.04605
1924.50000   -0.03100
1925.00000   -0.01524
1925.50000    0.00113
1926.00000    0.01797
1926.50000    0.03511
1927.00000    0.05237
1927.50000    0.06955
1928.00000    0.08643
1928.50000    0.10278
1929.00000    0.11838
1929.50000    0.13299
1930.00000    0.14642
1930.50000    0.15845
1931.00000    0.16891
1931.50000    0.17763
1932.00000    0.18448
1932.50000    0.18938
1933.00000    0.19224
1933.50000    0.19305
1934.00000    0.19183
1934.50000    0.18862
1935.00000    0.18353
1935.50000    0.17668
1936.00000    0.16826
1936.50000    0.15846
1937.00000    0.14752
1937.50000    0.13570
1938.00000    0.12328
1938.50000    0.11055
1939.00000    0.09778
1939.50000    0.08528
1940.00000    0.07329
1940.50000    0.06208
1941.00000    0.05187
1941.50000    0.04283
1942.00000    0.03512
1942.50000    0.02883
1943.00000    0.02403
1943.50000    0.02073
1944.00000    0.01890
1944.50000    0.01846
1945.00000    0.01932
1945.50000    0.02133
1946.00000    0.02434
1946.50000    0.02816
1947.00000    0.03262
1947.50000    0.03752
1948.00000    0.04269
1948.50000    0.04795
1949.00000    0.05315
1949.50000    0.05813
1950.00000    0.06280
1950.50000    0.06704
1951.00000    0.07078
1951.50000    0.07395
1952.00000    0.07652
1952.50000    0.07845
1953.00000    0.07973
1953.50000    0.08032
1954.00000    0.08023
1954.50000    0.07943
1955.00000    0.07792
1955.50000    0.07567
1956.00000    0.07267
1956.50000    0.06889
1957.00000    0.06431
1957.50000    0.05890
1958.00000    0.05265
1958.50000    0.04554
1959.00000    0.03757
1959.50000    0.02876
1960.00000    0.01915
1960.50000    0.00880
1961.00000   -0.00221
1961.50000   -0.01377
1962.00000   -0.02574
1962.50000   -0.03794
1963.00000   -0.05018
1963.50000   -0.06225
1964.00000   -0.07389
1964.50000   -0.08487
1965.00000   -0.09491
1965.50000   -0.10375
1966.00000   -0.11114
1966.50000   -0.11682
1967.00000   -0.12059
1967.50000   -0.12225
1968.00000   -0.12164
1968.50000   -0.11865
1969.00000   -0.11324
1969.50000   -0.10538
1970.00000   -0.09515
1970.50000   -0.08265
1971.00000   -0.06806
1971.50000   -0.05160
1972.00000   -0.03356
1972.50000   -0.01428
1973.00000    0.00587
1973.50000    0.02649
1974.00000    0.04715
1974.50000    0.06741
1975.00000    0.08683
1975.50000    0.10498
1976.00000    0.12146
1976.50000    0.13592
1977.00000    0.14803
1977.50000    0.15753
1978.00000    0.16423
1978.50000    0.16801
1979.00000    0.16882
1979.50000    0.16669
1980.00000    0.16173
1980.50000    0.15411
1981.00000    0.14407
1981.50000    0.13193
1982.00000    0.11802
1982.50000    0.10274
1983.00000    0.08650
1983.50000    0.06971
1984.00000    0.05281
1984.50000    0.03617
1985.00000    0.02019
1985.50000    0.00518
1986.00000   -0.00857
1986.50000   -0.02084
1987.00000   -0.03146
1987.50000   -0.04034
1988.00000   -0.04744
1988.50000   -0.05280
1989.00000   -0.05650
1989.50000   -0.05867
1990.00000   -0.05949
1990.50000   -0.05917
1991.00000   -0.05793
1991.50000   -0.05600
1992.00000   -0.05363
1992.50000   -0.05103
1993.00000   -0.04841
1993.50000   -0.04594
1994.00000   -0.04378
1994.50000   -0.04201
1995.00000   -0.04072
1995.50000   -0.03992
1996.00000   -0.03959
1996.50000   -0.03969
1997.00000   -0.04014
1997.50000   -0.04081
1998.00000   -0.04160
1998.50000   -0.04234
1999.00000   -0.04291
1999.50000   -0.04316
2000.00000   -0.04296
2000.50000   -0.04219
2001.00000   -0.04078
2001.50000   -0.03864
2002.00000   -0.03576
2002.50000   -0.03212
2003.00000   -0.02775
2003.50000   -0.02272
2004.00000   -0.01711
2004.50000   -0.01102
2005.00000   -0.00458
2005.50000    0.00207
2006.00000    0.00878
2006.50000    0.01541
2007.00000    0.02181
2007.50000    0.02785
2008.00000    0.03342
2008.50000    0.03842
2009.00000    0.04276
2009.50000    0.04638
2010.00000    0.04924
2010.50000    0.05132
2011.00000    0.05262
2011.50000    0.05314
2012.00000    0.05291
2012.50000    0.05195
2013.00000    0.05030
2013.50000    0.04800
2014.00000    0.04510
2014.50000    0.04162
2015.00000    0.03764
2015.50000    0.03319
2016.00000    0.02833
2016.50000    0.02313
2017.00000    0.01766
2017.50000    0.01201
2018.00000    0.00628
2018.50000    0.00058
2019.00000   -0.00496
2019.50000   -0.01021
2020.00000   -0.01501
2020.50000   -0.01921
2021.00000   -0.02266
2021.50000   -0.02521
2022.00000   -0.02674
2022.50000   -0.02712
2023.00000   -0.02627
2023.50000   -0.02413
2024.00000   -0.02069
2024.50000   -0.01597
2025.00000   -0.01004
2025.50000   -0.00299
2026.00000    0.00502
2026.50000    0.01382
2027.00000    0.02319
2027.50000    0.03292
2028.00000    0.04276
2028.50000    0.05248
2029.00000    0.06183
2029.50000    0.07062
2030.00000    0.07864
2030.50000    0.08575
2031.00000    0.09183
2031.50000    0.09679
2032.00000    0.10060
2032.50000    0.10326
2033.00000    0.10480
2033.50000    0.10529
2034.00000    0.10482
2034.50000    0.10350
2035.00000    0.10144
2035.50000    0.09875
2036.00000    0.09556
2036.50000    0.09197
2037.00000    0.08806
2037.50000    0.08391
2038.00000    0.07959
2038.50000    0.07513
2039.00000    0.07056
2039.50000    0.06590
2040.00000    0.06114
2040.50000    0.05629
2041.00000    0.05134
2041.50000    0.04628
2042.00000    0.04111
2042.50000    0.03585
2043.00000    0.03048
2043.50000    0.02503
2044.00000    0.01952
2044.50000    0.01398
2045.00000    0.00842
2045.50000    0.00289
2046.00000   -0.00259
2046.50000   -0.00799
2047.00000   -0.01328
2047.50000   -0.01846
2048.00000   -0.02349
2048.50000   -0.02837
2049.00000   -0.03309
2049.50000   -0.03766
2050.00000   -0.04206
2050.50000   -0.04630
2051.00000   -0.05038
2051.50000   -0.05429
2052.00000   -0.05802
2052.50000   -0.06158
2053.00000   -0.06493
2053.50000   -0.06807
2054.00000   -0.07098
2054.50000   -0.07364
2055.00000   -0.07603
2055.50000   -0.07813
2056.00000   -0.07994
2056.50000   -0.08146
2057.00000   -0.08268
2057.50000   -0.08362
2058.00000   -0.08429
2058.50000   -0.08474
2059.00000   -0.08499
2059.50000   -0.08508
2060.00000   -0.08506
2060.50000   -0.08497
2061.00000   -0.08486
2061.50000   -0.08477
2062.00000   -0.08472
2062.50000   -0.08474
2063.00000   -0.08485
2063.50000   -0.08505
2064.00000   -0.08533
2064.50000   -0.08567
2065.00000   -0.08603
2065.50000   -0.08639
2066.00000   -0.08668
2066.50000   -0.08685
2067.00000   -0.08684
2067.50000   -0.08659
2068.00000   -0.08603
2068.50000   -0.08510
2069.00000   -0.08374
2069.50000   -0.08189
2070.00000   -0.07953
2070.50000   -0.07659
2071.00000   -0.07307
2071.50000   -0.06895
2072.00000   -0.06421
2072.50000   -0.05888
2073.00000   -0.05297
2073.50000   -0.04653
2074.00000   -0.03960
2074.50000   -0.03225
2075.00000   -0.02456
2075.50000   -0.01663
2076.00000   -0.00856
2076.50000   -0.00047
2077.00000    0.00751
2077.50000    0.01526
2078.00000    0.02263
2078.50000    0.02949
2079.00000    0.03572
2079.50000    0.04119
2080.00000    0.04581
2080.50000    0.04949
2081.00000    0.05218
2081.50000    0.05383
2082.00000    0.05445
2082.50000    0.05408
2083.00000    0.05277
2083.50000    0.05061
2084.00000    0.04774
2084.50000    0.04431
2085.00000    0.04047
2085.50000    0.03641
2086.00000    0.03233
2086.50000    0.02839
2087.00000    0.02479
2087.50000    0.02168
2088.00000    0.01919
2088.50000    0.01744
2089.00000    0.01650
2089.50000    0.01641
2090.00000    0.01718
2090.50000    0.01878
2091.00000    0.02114
2091.50000    0.02419
2092.00000    0.02780
2092.50000    0.03184
2093.00000    0.03617
2093.50000    0.04065
2094.00000    0.04512
2094.50000    0.04944
2095.00000    0.05348
2095.50000    0.05712
2096.00000    0.06027
2096.50000    0.06283
2097.00000    0.06474
2097.50000    0.06594
2098.00000    0.06640
2098.50000    0.06609
2099.00000    0.06500
2099.50000    0.06311
2100.00000    0.06044
2100.50000    0.05698
2101.00000    0.05275
2101.50000    0.04777
2102.00000    0.04207
2102.50000    0.03567
2103.00000    0.02864
2103.50000    0.02102
2104.00000    0.01290
2104.50000    0.00436
2105.00000   -0.00447
2105.50000   -0.01347
2106.00000   -0.02249
2106.50000   -0.03137
2107.00000   -0.03994
2107.50000   -0.04801
2108.00000   -0.05542
2108.50000   -0.06199
2109.00000   -0.06757
2109.50000   -0.07200
2110.00000   -0.07519
2110.50000   -0.07705
2111.00000   -0.07754
2111.50000   -0.07666
2112.00000   -0.07443
2112.50000   -0.07094
2113.00000   -0.06631
2113.50000   -0.06066
2114.00000   -0.05418
2114.50000   -0.04706
2115.00000   -0.03950
2115.50000   -0.03170
2116.00000   -0.02388
2116.50000   -0.01622
2117.00000   -0.00889
2117.50000   -0.00203
2118.00000    0.00424
2118.50000    0.00985
2119.00000    0.01474
2119.50000    0.01891
2120.00000    0.02239
2120.50000    0.02523
2121.00000    0.02751
2121.50000    0.02933
2122.00000    0.03081
2122.50000    0.03207
2123.00000    0.03323
2123.50000    0.03439
2124.00000    0.03568
2124.50000    0.03716
2125.00000    0.03889
2125.50000    0.04090
2126.00000    0.04320
2126.50000    0.04576
2127.00000    0.04853
2127.50000    0.05142
2128.00000    0.05432
2128.50000    0.05713
2129.00000    0.05969
2129.50000    0.06186
2130.00000    0.06351
2130.50000    0.06449
2131.00000    0.06467
2131.50000    0.06395
2132.00000    0.06222
2132.50000    0.05944
2133.00000    0.05557
2133.50000    0.05059
2134.00000    0.04455
2134.50000    0.03751
2135.00000    0.02954
2135.50000    0.02077
2136.00000    0.01134
2136.50000    0.00142
2137.00000   -0.00883
2137.50000   -0.01920
2138.00000   -0.02951
2138.50000   -0.03956
2139.00000   -0.04916
2139.50000   -0.05811
2140.00000   -0.06623
2140.50000   -0.07337
2141.00000   -0.07938
2141.50000   -0.08411
2142.00000   -0.08747
2142.50000   -0.08937
2143.00000   -0.08972
2143.50000   -0.08850
2144.00000   -0.08568
2144.50000   -0.08128
2145.00000   -0.07531
2145.50000   -0.06785
2146.00000   -0.05899
2146.50000   -0.04882
2147.00000   -0.03751
2147.50000   -0.02520
2148.00000   -0.01210
2148.50000    0.00158
2149.00000    0.01562
2149.50000    0.02976
2150.00000    0.04375
2150.50000    0.05730
2151.00000    0.07017
2151.50000    0.08208
2152.00000    0.09278
2152.50000    0.10203
2153.00000    0.10962
2153.50000    0.11538
2154.00000    0.11915
2154.50000    0.12083
2155.00000    0.12036
2155.50000    0.11771
2156.00000    0.11294
2156.50000    0.10611
2157.00000    0.09736
2157.50000    0.08686
2158.00000    0.07482
2158.50000    0.06150
2159.00000    0.04717
2159.50000    0.03211
2160.00000    0.01665
2160.50000    0.00109
2161.00000   -0.01426
2161.50000   -0.02911
2162.00000   -0.04320
2162.50000   -0.05629
2163.00000   -0.06816
2163.50000   -0.07867
2164.00000   -0.08769
2164.50000   -0.09515
2165.00000   -0.10102
2165.50000   -0.10532
2166.00000   -0.10811
2166.50000   -0.10947
2167.00000   -0.10955
2167.50000   -0.10848
2168.00000   -0.10643
2168.50000   -0.10358
2169.00000   -0.10010
2169.50000   -0.09616
2170.00000   -0.09193
2170.50000   -0.08753
2171.00000   -0.08310
2171.50000   -0.07870
2172.00000   -0.07442
2172.50000   -0.07028
2173.00000   -0.06629
2173.50000   -0.06243
2174.00000   -0.05866
2174.50000   -0.05491
2175.00000   -0.05112
2175.50000   -0.04720
2176.00000   -0.04308
2176.50000   -0.03867
2177.00000   -0.03391
2177.50000   -0.02873
2178.00000   -0.02311
2178.50000   -0.01701
2179.00000   -0.01045
2179.50000   -0.00346
2180.00000    0.00392
2180.50000    0.01162
2181.00000    0.01955
2181.50000    0.02759
2182.00000    0.03561
2182.50000    0.04350
2183.00000    0.05111
2183.50000    0.05830
2184.00000    0.06493
2184.50000    0.07088
2185.00000    0.07604
2185.50000    0.08031
2186.00000    0.08361
2186.50000    0.08589
2187.00000    0.08713
2187.50000    0.08732
2188.00000    0.08650
2188.50000    0.08470
2189.00000    0.08201
2189.50000    0.07853
2190.00000    0.07437
2190.50000    0.06967
2191.00000    0.06455
2191.50000    0.05917
2192.00000    0.05367
2192.50000    0.04819
2193.00000    0.04285
2193.50000    0.03775
2194.00000    0.03301
2194.50000    0.02867
2195.00000    0.02480
2195.50000    0.02141
2196.00000    0.01851
2196.50000    0.01608
2197.00000    0.01409
2197.50000    0.01249
2198.00000    0.01122
2198.50000    0.01021
2199.00000    0.00942
2199.50000    0.00878
2200.00000    0.00824
2200.50000    0.00778
2201.00000    0.00736
2201.50000    0.00699
2202.00000    0.00668
2202.50000    0.00645
2203.00000    0.00635
2203.50000    0.00642
2204.00000    0.00671
2204.50000    0.00729
2205.00000    0.00819
2205.50000    0.00947
2206.00000    0.01116
2206.50000    0.01326
2207.00000    0.01578
2207.50000    0.01868
2208.00000    0.02194
2208.50000    0.02548
2209.00000    0.02921
2209.50000    0.03305
2210.00000    0.03688
2210.50000    0.04058
2211.00000    0.04402
2211.50000    0.04709
2212.00000    0.04967
2212.50000    0.05165
2213.00000    0.05292
2213.50000    0.05340
2214.00000    0.05303
2214.50000    0.05175
2215.00000    0.04953
2215.50000    0.04635
2216.00000    0.04223
2216.50000    0.03718
2217.00000    0.03123
2217.50000    0.02446
2218.00000    0.01692
2218.50000    0.00871
2219.00000   -0.00008
2219.50000   -0.00933
2220.00000   -0.01892
2220.50000   -0.02872
2221.00000   -0.03858
2221.50000   -0.04837
2222.00000   -0.05792
2222.50000   -0.06710
2223.00000   -0.07576
2223.50000   -0.08375
2224.00000   -0.09096
2224.50000   -0.09728
2225.00000   -0.10262
2225.50000   -0.10692
2226.00000   -0.11014
2226.50000   -0.11227
2227.00000   -0.11333
2227.50000   -0.11337
2228.00000   -0.11245
2228.50000   -0.11068
2229.00000   -0.10816
2229.50000   -0.10503
2230.00000   -0.10140
2230.50000   -0.09741
2231.00000   -0.09320
2231.50000   -0.08887
2232.00000   -0.08454
2232.50000   -0.08028
2233.00000   -0.07616
2233.50000   -0.07223
2234.00000   -0.06851
2234.50000   -0.06500
2235.00000   -0.06170
2235.50000   -0.05858
2236.00000   -0.05561
2236.50000   -0.05275
2237.00000   -0.04998
2237.50000   -0.04726
2238.00000   -0.04455
2238.50000   -0.04185
2239.00000   -0.03913
2239.50000   -0.03639
2240.00000   -0.03363
2240.50000   -0.03085
2241.00000   -0.02805
2241.50000   -0.02522
2242.00000   -0.02237
2242.50000   -0.01948
2243.00000   -0.01654
2243.50000   -0.01351
2244.00000   -0.01039
2244.50000   -0.00712
2245.00000   -0.00369
2245.50000   -0.00006
2246.00000    0.00378
2246.50000    0.00784
2247.00000    0.01212
2247.50000    0.01658
2248.00000    0.02118
2248.50000    0.02585
2249.00000    0.03051
2249.50000    0.03506
2250.00000    0.03939
2250.50000    0.04338
2251.00000    0.04691
2251.50000    0.04989
2252.00000    0.05222
2252.50000    0.05383
2253.00000    0.05468
2253.50000    0.05476
2254.00000    0.05410
2254.50000    0.05276
2255.00000    0.05083
2255.50000    0.04843
2256.00000    0.04570
2256.50000    0.04280
2257.00000    0.03989
2257.50000    0.03713
2258.00000    0.03468
2258.50000    0.03266
2259.00000    0.03118
2259.50000    0.03030
2260.00000    0.03006
2260.50000    0.03046
2261.00000    0.03144
2261.50000    0.03294
2262.00000    0.03485
2262.50000    0.03704
2263.00000    0.03936
2263.50000    0.04167
2264.00000    0.04382
2264.50000    0.04567
2265.00000    0.04711
2265.50000    0.04804
2266.00000    0.04841
2266.50000    0.04817
2267.00000    0.04734
2267.50000    0.04594
2268.00000    0.04403
2268.50000    0.04169
2269.00000    0.03902
2269.50000    0.03614
2270.00000    0.03314
2270.50000    0.03015
2271.00000    0.02725
2271.50000    0.02455
2272.00000    0.02210
2272.50000    0.01996
2273.00000    0.01815
2273.50000    0.01669
2274.00000    0.01557
2274.50000    0.01475
2275.00000    0.01422
2275.50000    0.01391
2276.00000    0.01378
2276.50000    0.01377
2277.00000    0.01383
2277.50000    0.01390
2278.00000    0.01394
2278.50000    0.01389
2279.00000    0.01372
2279.50000    0.01338
2280.00000    0.01283
2280.50000    0.01203
2281.00000    0.01095
2281.50000    0.00954
2282.00000    0.00776
2282.50000    0.00559
2283.00000    0.00300
2283.50000   -0.00004
2284.00000   -0.00353
2284.50000   -0.00746
2285.00000   -0.01180
2285.50000   -0.01650
2286.00000   -0.02149
2286.50000   -0.02666
2287.00000   -0.03189
2287.50000   -0.03701
2288.00000   -0.04186
2288.50000   -0.04626
2289.00000   -0.05000
2289.50000   -0.05291
2290.00000   -0.05479
2290.50000   -0.05549
2291.00000   -0.05488
2291.50000   -0.05286
2292.00000   -0.04940
2292.50000   -0.04450
2293.00000   -0.03822
2293.50000   -0.03067
2294.00000   -0.02204
2294.50000   -0.01253
2295.00000   -0.00241
2295.50000    0.00803
2296.00000    0.01847
2296.50000    0.02859
2297.00000    0.03806
2297.50000    0.04658
2298.00000    0.05387
2298.50000    0.05970
2299.00000    0.06387
2299.50000    0.06626
2300.00000    0.06677
2300.50000    0.06542
2301.00000    0.06223
2301.50000    0.05733
2302.00000    0.05087
2302.50000    0.04305
2303.00000    0.03413
2303.50000    0.02438
2304.00000    0.01407
2304.50000    0.00352
2305.00000   -0.00700
2305.50000   -0.01719
2306.00000   -0.02679
2306.50000   -0.03559
2307.00000   -0.04337
2307.50000   -0.04997
2308.00000   -0.05529
2308.50000   -0.05923
2309.00000   -0.06178
2309.50000   -0.06293
2310.00000   -0.06272
2310.50000   -0.06125
2311.00000   -0.05863
2311.50000   -0.05499
2312.00000   -0.05050
2312.50000   -0.04534
2313.00000   -0.03971
2313.50000   -0.03380
2314.00000   -0.02781
2314.50000   -0.02194
2315.00000   -0.01636
2315.50000   -0.01125
2316.00000   -0.00676
2316.50000   -0.00299
2317.00000   -0.00006
2317.50000    0.00199
2318.00000    0.00312
2318.50000    0.00334
2319.00000    0.00269
2319.50000    0.00124
2320.00000   -0.00091
2320.50000   -0.00363
2321.00000   -0.00676
2321.50000   -0.01016
2322.00000   -0.01364
2322.50000   -0.01703
2323.00000   -0.02017
2323.50000   -0.02290
2324.00000   -0.02509
2324.50000   -0.02663
2325.00000   -0.02744
2325.50000   -0.02748
2326.00000   -0.02674
2326.50000   -0.02524
2327.00000   -0.02304
2327.50000   -0.02024
2328.00000   -0.01694
2328.50000   -0.01328
2329.00000   -0.00941
2329.50000   -0.00547
2330.00000   -0.00162
2330.50000    0.00201
2331.00000    0.00529
2331.50000    0.00813
2332.00000    0.01046
2332.50000    0.01223
2333.00000    0.01342
2333.50000    0.01406
2334.00000    0.01419
2334.50000    0.01386
2335.00000    0.01317
2335.50000    0.01220
2336.00000    0.01105
2336.50000    0.00983
2337.00000    0.00862
2337.50000    0.00751
2338.00000    0.00655
2338.50000    0.00579
2339.00000    0.00526
2339.50000    0.00496
2340.00000    0.00487
2340.50000    0.00498
2341.00000    0.00523
2341.50000    0.00559
2342.00000    0.00601
2342.50000    0.00645
2343.00000    0.00688
2343.50000    0.00729
2344.00000    0.00769
2344.50000    0.00810
2345.00000    0.00857
2345.50000    0.00916
2346.00000    0.00997
2346.50000    0.01109
2347.00000    0.01263
2347.50000    0.01471
2348.00000    0.01743
2348.50000    0.02090
2349.00000    0.02518
2349.50000    0.03032
2350.00000    0.03635
2350.50000    0.04323
2351.00000    0.05092
2351.50000    0.05930
2352.00000    0.06823
2352.50000    0.07752
2353.00000    0.08694
2353.50000    0.09626
2354.00000    0.10518
2354.50000    0.11344
2355.00000    0.12076
2355.50000    0.12686
2356.00000    0.13151
2356.50000    0.13448
2357.00000    0.13562
2357.50000    0.13481
2358.00000    0.13198
2358.50000    0.12715
2359.00000    0.12036
2359.50000    0.11175
2360.00000    0.10149
2360.50000    0.08980
2361.00000    0.07695
2361.50000    0.06322
2362.00000    0.04893
2362.50000    0.03440
2363.00000    0.01992
2363.50000    0.00580
2364.00000   -0.00770
2364.50000   -0.02035
2365.00000   -0.03195
2365.50000   -0.04235
2366.00000   -0.05145
2366.50000   -0.05919
2367.00000   -0.06554
2367.50000   -0.07053
2368.00000   -0.07420
2368.50000   -0.07663
2369.00000   -0.07794
2369.50000   -0.07822
2370.00000   -0.07762
2370.50000   -0.07626
2371.00000   -0.07428
2371.50000   -0.07181
2372.00000   -0.06897
2372.50000   -0.06589
2373.00000   -0.06268
2373.50000   -0.05943
2374.00000   -0.05625
2374.50000   -0.05321
2375.00000   -0.05039
2375.50000   -0.04784
2376.00000   -0.04561
2376.50000   -0.04373
2377.00000   -0.04222
2377.50000   -0.04108
2378.00000   -0.04029
2378.50000   -0.03983
2379.00000   -0.03964
2379.50000   -0.03968
2380.00000   -0.03986
2380.50000   -0.04012
2381.00000   -0.04037
2381.50000   -0.04054
2382.00000   -0.04055
2382.50000   -0.04032
2383.00000   -0.03982
2383.50000   -0.03901
2384.00000   -0.03786
2384.50000   -0.03637
2385.00000   -0.03459
2385.50000   -0.03254
2386.00000   -0.03030
2386.50000   -0.02795
2387.00000   -0.02557
2387.50000   -0.02327
2388.00000   -0.02115
2388.50000   -0.01930
2389.00000   -0.01783
2389.50000   -0.01681
2390.00000   -0.01631
2390.50000   -0.01637
2391.00000   -0.01703
2391.50000   -0.01830
2392.00000   -0.02018
2392.50000   -0.02262
2393.00000   -0.02560
2393.50000   -0.02905
2394.00000   -0.03290
2394.50000   -0.03710
2395.00000   -0.04155
2395.50000   -0.04619
2396.00000   -0.05093
2396.50000   -0.05569
2397.00000   -0.06042
2397.50000   -0.06503
2398.00000   -0.06948
2398.50000   -0.07368
2399.00000   -0.07760
2399.50000   -0.08117
2400.00000   -0.08434
2400.50000   -0.08705
2401.00000   -0.08923
2401.50000   -0.09083
2402.00000   -0.09178
2402.50000   -0.09202
2403.00000   -0.09149
2403.50000   -0.09012
2404.00000   -0.08787
2404.50000   -0.08469
2405.00000   -0.08055
2405.50000   -0.07545
2406.00000   -0.06938
2406.50000   -0.06239
2407.00000   -0.05453
2407.50000   -0.04587
2408.00000   -0.03651
2408.50000   -0.02658
2409.00000   -0.01622
2409.50000   -0.00556
2410.00000    0.00522
2410.50000    0.01596
2411.00000    0.02653
2411.50000    0.03676
2412.00000    0.04654
2412.50000    0.05576
2413.00000    0.06432
2413.50000    0.07218
2414.00000    0.07928
2414.50000    0.08561
2415.00000    0.09118
2415.50000    0.09599
2416.00000    0.10008
2416.50000    0.10346
2417.00000    0.10617
2417.50000    0.10821
2418.00000    0.10960
2418.50000    0.11032
2419.00000    0.11037
2419.50000    0.10970
2420.00000    0.10827
2420.50000    0.10605
2421.00000    0.10300
2421.50000    0.09907
2422.00000    0.09425
2422.50000    0.08855
2423.00000    0.08199
2423.50000    0.07464
2424.00000    0.06659
2424.50000    0.05797
2425.00000    0.04892
2425.50000    0.03964
2426.00000    0.03031
2426.50000    0.02114
2427.00000    0.01234
2427.50000    0.00412
2428.00000   -0.00336
2428.50000   -0.00992
2429.00000   -0.01545
2429.50000   -0.01985
2430.00000   -0.02308
2430.50000   -0.02513
2431.00000   -0.02603
2431.50000   -0.02583
2432.00000   -0.02463
2432.50000   -0.02254
2433.00000   -0.01969
2433.50000   -0.01621
2434.00000   -0.01224
2434.50000   -0.00790
2435.00000   -0.00334
2435.50000    0.00134
2436.00000    0.00603
2436.50000    0.01064
2437.00000    0.01508
2437.50000    0.01926
2438.00000    0.02312
2438.50000    0.02656
2439.00000    0.02951
2439.50000    0.03187
2440.00000    0.03357
2440.50000    0.03449
2441.00000    0.03455
2441.50000    0.03365
2442.00000    0.03171
2442.50000    0.02867
2443.00000    0.02446
2443.50000    0.01909
2444.00000    0.01256
2444.50000    0.00493
2445.00000   -0.00370
2445.50000   -0.01320
2446.00000   -0.02340
2446.50000   -0.03407
2447.00000   -0.04497
2447.50000   -0.05585
2448.00000   -0.06642
2448.50000   -0.07641
2449.00000   -0.08554
2449.50000   -0.09356
2450.00000   -0.10026
2450.50000   -0.10545
2451.00000   -0.10900
2451.50000   -0.11082
2452.00000   -0.11087
2452.50000   -0.10915
2453.00000   -0.10575
2453.50000   -0.10074
2454.00000   -0.09428
2454.50000   -0.08652
2455.00000   -0.07764
2455.50000   -0.06784
2456.00000   -0.05731
2456.50000   -0.04623
2457.00000   -0.03477
2457.50000   -0.02309
2458.00000   -0.01133
2458.50000    0.00040
2459.00000    0.01199
2459.50000    0.02338
2460.00000    0.03447
2460.50000    0.04520
2461.00000    0.05552
2461.50000    0.06534
2462.00000    0.07459
2462.50000    0.08320
2463.00000    0.09105
2463.50000    0.09804
2464.00000    0.10406
2464.50000    0.10899
2465.00000    0.11271
2465.50000    0.11511
2466.00000    0.11608
2466.50000    0.11555
2467.00000    0.11348
2467.50000    0.10982
2468.00000    0.10462
2468.50000    0.09791
2469.00000    0.08980
2469.50000    0.08042
2470.00000    0.06994
2470.50000    0.05857
2471.00000    0.04652
2471.50000    0.03407
2472.00000    0.02146
2472.50000    0.00896
2473.00000   -0.00317
2473.50000   -0.01468
2474.00000   -0.02535
2474.50000   -0.03495
2475.00000   -0.04333
2475.50000   -0.05034
2476.00000   -0.05586
2476.50000   -0.05982
2477.00000   -0.06219
2477.50000   -0.06296
2478.00000   -0.06215
2478.50000   -0.05982
2479.00000   -0.05605
2479.50000   -0.05092
2480.00000   -0.04457
2480.50000   -0.03711
2481.00000   -0.02868
2481.50000   -0.01941
2482.00000   -0.00944
2482.50000    0.00108
2483.00000    0.01204
2483.50000    0.02330
2484.00000    0.03476
2484.50000    0.04631
2485.00000    0.05785
2485.50000    0.06929
2486.00000    0.08056
2486.50000    0.09159
2487.00000    0.10229
2487.50000    0.11261
2488.00000    0.12247
2488.50000    0.13180
2489.00000    0.14052
2489.50000    0.14855
2490.00000    0.15579
2490.50000    0.16214
2491.00000    0.16751
2491.50000    0.17178
2492.00000    0.17484
2492.50000    0.17661
2493.00000    0.17699
2493.50000    0.17589
2494.00000    0.17326
2494.50000    0.16906
2495.00000    0.16327
2495.50000    0.15590
2496.00000    0.14701
2496.50000    0.13666
2497.00000    0.12495
2497.50000    0.11202
2498.00000    0.09803
2498.50000    0.08315
2499.00000    0.06758
2499.50000    0.05152
2500.00000    0.03519
2500.50000    0.01882
2501.00000    0.00262
2501.50000   -0.01319
2502.00000   -0.02842
2502.50000   -0.04287
2503.00000   -0.05636
2503.50000   -0.06873
2504.00000   -0.07986
2504.50000   -0.08962
2505.00000   -0.09792
2505.50000   -0.10469
2506.00000   -0.10990
2506.50000   -0.11353
2507.00000   -0.11559
2507.50000   -0.11611
2508.00000   -0.11517
2508.50000   -0.11284
2509.00000   -0.10925
2509.50000   -0.10451
2510.00000   -0.09879
2510.50000   -0.09225
2511.00000   -0.08504
2511.50000   -0.07736
2512.00000   -0.06937
2512.50000   -0.06123
2513.00000   -0.05311
2513.50000   -0.04512
2514.00000   -0.03740
2514.50000   -0.03004
2515.00000   -0.02309
2515.50000   -0.01661
2516.00000   -0.01060
2516.50000   -0.00506
2517.00000    0.00003
2517.50000    0.00474
2518.00000    0.00911
2518.50000    0.01323
2519.00000    0.01717
2519.50000    0.02100
2520.00000    0.02479
2520.50000    0.02861
2521.00000    0.03251
2521.50000    0.03653
2522.00000    0.04068
2522.50000    0.04496
2523.00000    0.04934
2523.50000    0.05380
2524.00000    0.05826
2524.50000    0.06264
2525.00000    0.06684
2525.50000    0.07076
2526.00000    0.07426
2526.50000    0.07722
2527.00000    0.07949
2527.50000    0.08093
2528.00000    0.08141
2528.50000    0.08081
2529.00000    0.07902
2529.50000    0.07594
2530.00000    0.07152
2530.50000    0.06570
2531.00000    0.05849
2531.50000    0.04992
2532.00000    0.04004
2532.50000    0.02896
2533.00000    0.01680
2533.50000    0.00374
2534.00000   -0.01003
2534.50000   -0.02429
2535.00000   -0.03880
2535.50000   -0.05330
2536.00000   -0.06755
2536.50000   -0.08127
2537.00000   -0.09421
2537.50000   -0.10613
2538.00000   -0.11682
2538.50000   -0.12607
2539.00000   -0.13371
2539.50000   -0.13960
2540.00000   -0.14365
2540.50000   -0.14579
2541.00000   -0.14600
2541.50000   -0.14427
2542.00000   -0.14066
2542.50000   -0.13525
2543.00000   -0.12816
2543.50000   -0.11953
2544.00000   -0.10953
2544.50000   -0.09837
2545.00000   -0.08625
2545.50000   -0.07341
2546.00000   -0.06007
2546.50000   -0.04650
2547.00000   -0.03291
2547.50000   -0.01955
2548.00000   -0.00664
2548.50000    0.00563
2549.00000    0.01706
2549.50000    0.02749
2550.00000    0.03681
2550.50000    0.04490
2551.00000    0.05170
2551.50000    0.05718
2552.00000    0.06132
2552.50000    0.06416
2553.00000    0.06575
2553.50000    0.06617
2554.00000    0.06552
2554.50000    0.06394
2555.00000    0.06154
2555.50000    0.05849
2556.00000    0.05494
2556.50000    0.05104
2557.00000    0.04694
2557.50000    0.04279
2558.00000    0.03873
2558.50000    0.03488
2559.00000    0.03134
2559.50000    0.02820
2560.00000    0.02551
2560.50000    0.02332
2561.00000    0.02164
2561.50000    0.02045
2562.00000    0.01974
2562.50000    0.01944
2563.00000    0.01949
2563.50000    0.01980
2564.00000    0.02028
2564.50000    0.02083
2565.00000    0.02135
2565.50000    0.02176
2566.00000    0.02196
2566.50000    0.02189
2567.00000    0.02151
2567.50000    0.02079
2568.00000    0.01973
2568.50000    0.01835
2569.00000    0.01669
2569.50000    0.01482
2570.00000    0.01283
2570.50000    0.01080
2571.00000    0.00884
2571.50000    0.00705
2572.00000    0.00553
2572.50000    0.00437
2573.00000    0.00364
2573.50000    0.00338
2574.00000    0.00364
2574.50000    0.00440
2575.00000    0.00567
2575.50000    0.00738
2576.00000    0.00949
2576.50000    0.01192
2577.00000    0.01458
2577.50000    0.01737
2578.00000    0.02021
2578.50000    0.02301
2579.00000    0.02569
2579.50000    0.02820
2580.00000    0.03049
2580.50000    0.03254
2581.00000    0.03435
2581.50000    0.03594
2582.00000    0.03736
2582.50000    0.03865
2583.00000    0.03989
2583.50000    0.04113
2584.00000    0.04246
2584.50000    0.04393
2585.00000    0.04559
2585.50000    0.04749
2586.00000    0.04961
2586.50000    0.05196
2587.00000    0.05448
2587.50000    0.05710
2588.00000    0.05972
2588.50000    0.06220
2589.00000    0.06438
2589.50000    0.06611
2590.00000    0.06717
2590.50000    0.06739
2591.00000    0.06657
2591.50000    0.06452
2592.00000    0.06110
2592.50000    0.05614
2593.00000    0.04956
2593.50000    0.04127
2594.00000    0.03127
2594.50000    0.01957
2595.00000    0.00625
2595.50000   -0.00857
2596.00000   -0.02472
2596.50000   -0.04200
2597.00000   -0.06016
2597.50000   -0.07892
2598.00000   -0.09797
2598.50000   -0.11701
2599.00000   -0.13571
2599.50000   -0.15375
2600.00000   -0.17083
2600.50000   -0.18665
2601.00000   -0.20097
2601.50000   -0.21355
2602.00000   -0.22421
2602.50000   -0.23280
2603.00000   -0.23921
2603.50000   -0.24338
2604.00000   -0.24531
2604.50000   -0.24500
2605.00000   -0.24252
2605.50000   -0.23795
2606.00000   -0.23143
2606.50000   -0.22308
2607.00000   -0.21308
2607.50000   -0.20158
2608.00000   -0.18878
2608.50000   -0.17484
2609.00000   -0.15995
2609.50000   -0.14428
2610.00000   -0.12800
2610.50000   -0.11126
2611.00000   -0.09423
2611.50000   -0.07703
2612.00000   -0.05981
2612.50000   -0.04268
2613.00000   -0.02579
2613.50000   -0.00923
2614.00000    0.00686
2614.50000    0.02238
2615.00000    0.03721
2615.50000    0.05123
2616.00000    0.06433
2616.50000    0.07639
2617.00000    0.08732
2617.50000    0.09702
2618.00000    0.10540
2618.50000    0.11240
2619.00000    0.11797
2619.50000    0.12207
2620.00000    0.12472
2620.50000    0.12593
2621.00000    0.12576
2621.50000    0.12429
2622.00000    0.12162
2622.50000    0.11788
2623.00000    0.11322
2623.50000    0.10781
2624.00000    0.10182
2624.50000    0.09542
2625.00000    0.08880
2625.50000    0.08212
2626.00000    0.07554
2626.50000    0.06922
2627.00000    0.06329
2627.50000    0.05785
2628.00000    0.05301
2628.50000    0.04883
2629.00000    0.04539
2629.50000    0.04271
2630.00000    0.04083
2630.50000    0.03978
2631.00000    0.03957
2631.50000    0.04021
2632.00000    0.04172
2632.50000    0.04410
2633.00000    0.04739
2633.50000    0.05162
2634.00000    0.05682
2634.50000    0.06304
2635.00000    0.07036
2635.50000    0.07885
2636.00000    0.08859
2636.50000    0.09970
2637.00000    0.11229
2637.50000    0.12648
2638.00000    0.14241
2638.50000    0.16021
2639.00000    0.18003
2639.50000    0.20201
2640.00000    0.22628
2640.50000    0.25299
2641.00000    0.28223
2641.50000    0.31412
2642.00000    0.34875
2642.50000    0.38617
2643.00000    0.42643
2643.50000    0.46956
2644.00000    0.51557
2644.50000    0.56444
2645.00000    0.61616
2645.50000    0.67069
2646.00000    0.72800
2646.50000    0.78806
2647.00000    0.85086
2647.50000    0.91639
2648.00000    0.98467
2648.50000    1.05574
2649.00000    1.12965
2649.50000    1.20649
2650.00000    1.28638
2650.50000    1.36946
2651.00000    1.45586
2651.50000    1.54577
2652.00000    1.63937
2652.50000    1.73683
2653.00000    1.83834
2653.50000    1.94408
2654.00000    2.05422
2654.50000    2.16892
2655.00000    2.28831
2655.50000    2.41253
2656.00000    2.54167
2656.50000    2.67583
2657.00000    2.81508
2657.50000    2.95947
2658.00000    3.10902
2658.50000    3.26376
2659.00000    3.42368
2659.50000    3.58876
2660.00000    3.75894
2660.50000    3.93414
2661.00000    4.11428
2661.50000    4.29920
2662.00000    4.48874
2662.50000    4.68269
2663.00000    4.88079
2663.50000    5.08273
2664.00000    5.28818
2664.50000    5.49673
2665.00000    5.70794
2665.50000    5.92130
2666.00000    6.13627
2666.50000    6.35226
2667.00000    6.56863
2667.50000    6.78471
2668.00000    6.99979
2668.50000    7.21314
2669.00000    7.42400
2669.50000    7.63159
2670.00000    7.83513
2670.50000    8.03382
2671.00000    8.22687
2671.50000    8.41350
2672.00000    8.59295
2672.50000    8.76445
2673.00000    8.92730
2673.50000    9.08079
2674.00000    9.22427
2674.50000    9.35712
2675.00000    9.47876
2675.50000    9.58867
2676.00000    9.68637
2676.50000    9.77143
2677.00000    9.84348
2677.50000    9.90222
2678.00000    9.94740
2678.50000    9.97883
2679.00000    9.99638
2679.50000   10.00000
2680.00000    9.98970
2680.50000    9.96556
2681.00000    9.92773
2681.50000    9.87643
2682.00000    9.81194
2682.50000    9.73463
2683.00000    9.64491
2683.50000    9.54328
2684.00000    9.43027
2684.50000    9.30646
2685.00000    9.17248
2685.50000    9.02898
2686.00000    8.87664
2686.50000    8.71612
2687.00000    8.54812
2687.50000    8.37331
2688.00000    8.19234
2688.50000    8.00585
2689.00000    7.81445
2689.50000    7.61872
2690.00000    7.41922
2690.50000    7.21650
2691.00000    7.01106
2691.50000    6.80343
2692.00000    6.59408
2692.50000    6.38354
2693.00000    6.17228
2693.50000    5.96084
2694.00000    5.74972
2694.50000    5.53945
2695.00000    5.33058
2695.50000    5.12362
2696.00000    4.91914
2696.50000    4.71763
2697.00000    4.51961
2697.50000    4.32556
2698.00000    4.13589
2698.50000    3.95101
2699.00000    3.77125
2699.50000    3.59688
2700.00000    3.42813
2700.50000    3.26514
2701.00000    3.10801
2701.50000    2.95679
2702.00000    2.81147
2702.50000    2.67200
2703.00000    2.53830
2703.50000    2.41025
2704.00000    2.28773
2704.50000    2.17059
2705.00000    2.05867
2705.50000    1.95182
2706.00000    1.84987
2706.50000    1.75265
2707.00000    1.65999
2707.50000    1.57171
2708.00000    1.48763
2708.50000    1.40754
2709.00000    1.33126
2709.50000    1.25855
2710.00000    1.18920
2710.50000    1.12297
2711.00000    1.05962
2711.50000    0.99890
2712.00000    0.94057
2712.50000    0.88441
2713.00000    0.83019
2713.50000    0.77772
2714.00000    0.72683
2714.50000    0.67738
2715.00000    0.62927
2715.50000    0.58241
2716.00000    0.53678
2716.50000    0.49238
2717.00000    0.44922
2717.50000    0.40736
2718.00000    0.36688
2718.50000    0.32786
2719.00000    0.29040
2719.50000    0.25458
2720.00000    0.22051
2720.50000    0.18825
2721.00000    0.15786
2721.50000    0.12939
2722.00000    0.10286
2722.50000    0.07824
2723.00000    0.05553
2723.50000    0.03468
2724.00000    0.01562
2724.50000   -0.00171
2725.00000   -0.01739
2725.50000   -0.03150
2726.00000   -0.04411
2726.50000   -0.05528
2727.00000   -0.06507
2727.50000   -0.07352
2728.00000   -0.08064
2728.50000   -0.08644
2729.00000   -0.09091
2729.50000   -0.09403
2730.00000   -0.09577
2730.50000   -0.09610
2731.00000   -0.09498
2731.50000   -0.09239
2732.00000   -0.08833
2732.50000   -0.08279
2733.00000   -0.07581
2733.50000   -0.06743
2734.00000   -0.05774
2734.50000   -0.04684
2735.00000   -0.03488
2735.50000   -0.02202
2736.00000   -0.00844
2736.50000    0.00565
2737.00000    0.02003
2737.50000    0.03447
2738.00000    0.04872
2738.50000    0.06256
2739.00000    0.07576
2739.50000    0.08810
2740.00000    0.09939
2740.50000    0.10946
2741.00000    0.11815
2741.50000    0.12535
2742.00000    0.13097
2742.50000    0.13497
2743.00000    0.13733
2743.50000    0.13806
2744.00000    0.13721
2744.50000    0.13486
2745.00000    0.13111
2745.50000    0.12609
2746.00000    0.11994
2746.50000    0.11282
2747.00000    0.10489
2747.50000    0.09631
2748.00000    0.08725
2748.50000    0.07786
2749.00000    0.06828
2749.50000    0.05862
2750.00000    0.04901
2750.50000    0.03952
2751.00000    0.03021
2751.50000    0.02115
2752.00000    0.01235
2752.50000    0.00384
2753.00000   -0.00438
2753.50000   -0.01232
2754.00000   -0.01997
2754.50000   -0.02734
2755.00000   -0.03442
2755.50000   -0.04121
2756.00000   -0.04769
2756.50000   -0.05384
2757.00000   -0.05960
2757.50000   -0.06494
2758.00000   -0.06980
2758.50000   -0.07412
2759.00000   -0.07784
2759.50000   -0.08092
2760.00000   -0.08332
2760.50000   -0.08499
2761.00000   -0.08594
2761.50000   -0.08618
2762.00000   -0.08575
2762.50000   -0.08469
2763.00000   -0.08311
2763.50000   -0.08111
2764.00000   -0.07881
2764.50000   -0.07634
2765.00000   -0.07387
2765.50000   -0.07153
2766.00000   -0.06947
2766.50000   -0.06780
2767.00000   -0.06663
2767.50000   -0.06602
2768.00000   -0.06602
2768.50000   -0.06662
2769.00000   -0.06776
2769.50000   -0.06937
2770.00000   -0.07131
2770.50000   -0.07342
2771.00000   -0.07551
2771.50000   -0.07738
2772.00000   -0.07880
2772.50000   -0.07957
2773.00000   -0.07949
2773.50000   -0.07838
2774.00000   -0.07613
2774.50000   -0.07263
2775.00000   -0.06786
2775.50000   -0.06184
2776.00000   -0.05464
2776.50000   -0.04641
2777.00000   -0.03731
2777.50000   -0.02759
2778.00000   -0.01747
2778.50000   -0.00725
2779.00000    0.00281
2779.50000    0.01244
2780.00000    0.02141
2780.50000    0.02951
2781.00000    0.03657
2781.50000    0.04249
2782.00000    0.04722
2782.50000    0.05076
2783.00000    0.05317
2783.50000    0.05457
2784.00000    0.05511
2784.50000    0.05497
2785.00000    0.05435
2785.50000    0.05346
2786.00000    0.05251
2786.50000    0.05168
2787.00000    0.05113
2787.50000    0.05097
2788.00000    0.05127
2788.50000    0.05207
2789.00000    0.05333
2789.50000    0.05497
2790.00000    0.05688
2790.50000    0.05888
2791.00000    0.06079
2791.50000    0.06239
2792.00000    0.06346
2792.50000    0.06376
2793.00000    0.06310
2793.50000    0.06128
2794.00000    0.05816
2794.50000    0.05363
2795.00000    0.04762
2795.50000    0.04015
2796.00000    0.03126
2796.50000    0.02108
2797.00000    0.00977
2797.50000   -0.00244
2798.00000   -0.01529
2798.50000   -0.02848
2799.00000   -0.04168
2799.50000   -0.05456
2800.00000   -0.06677
2800.50000   -0.07799
2801.00000   -0.08790
2801.50000   -0.09624
2802.00000   -0.10276
2802.50000   -0.10727
2803.00000   -0.10965
2803.50000   -0.10980
2804.00000   -0.10770
2804.50000   -0.10337
2805.00000   -0.09690
2805.50000   -0.08842
2806.00000   -0.07809
2806.50000   -0.06613
2807.00000   -0.05277
2807.50000   -0.03827
2808.00000   -0.02290
2808.50000   -0.00695
2809.00000    0.00929
2809.50000    0.02554
2810.00000    0.04151
2810.50000    0.05695
2811.00000    0.07159
2811.50000    0.08522
2812.00000    0.09762
2812.50000    0.10861
2813.00000    0.11804
2813.50000    0.12578
2814.00000    0.13174
2814.50000    0.13585
2815.00000    0.13809
2815.50000    0.13846
2816.00000    0.13698
2816.50000    0.13372
2817.00000    0.12876
2817.50000    0.12219
2818.00000    0.11416
2818.50000    0.10479
2819.00000    0.09424
2819.50000    0.08266
2820.00000    0.07023
2820.50000    0.05710
2821.00000    0.04344
2821.50000    0.02941
2822.00000    0.01516
2822.50000    0.00085
2823.00000   -0.01337
2823.50000   -0.02737
2824.00000   -0.04101
2824.50000   -0.05417
2825.00000   -0.06672
2825.50000   -0.07857
2826.00000   -0.08959
2826.50000   -0.09970
2827.00000   -0.10882
2827.50000   -0.11686
2828.00000   -0.12377
2828.50000   -0.12951
2829.00000   -0.13402
2829.50000   -0.13731
2830.00000   -0.13937
2830.50000   -0.14021
2831.00000   -0.13986
2831.50000   -0.13836
2832.00000   -0.13577
2832.50000   -0.13215
2833.00000   -0.12759
2833.50000   -0.12215
2834.00000   -0.11593
2834.50000   -0.10901
2835.00000   -0.10147
2835.50000   -0.09339
2836.00000   -0.08486
2836.50000   -0.07594
2837.00000   -0.06671
2837.50000   -0.05721
2838.00000   -0.04751
2838.50000   -0.03765
2839.00000   -0.02769
2839.50000   -0.01765
2840.00000   -0.00760
2840.50000    0.00244
2841.00000    0.01240
2841.50000    0.02224
2842.00000    0.03189
2842.50000    0.04130
2843.00000    0.05038
2843.50000    0.05906
2844.00000    0.06725
2844.50000    0.07488
2845.00000    0.08186
2845.50000    0.08812
2846.00000    0.09357
2846.50000    0.09818
2847.00000    0.10190
2847.50000    0.10469
2848.00000    0.10656
2848.50000    0.10752
2849.00000    0.10760
2849.50000    0.10684
2850.00000    0.10532
2850.50000    0.10309
2851.00000    0.10024
2851.50000    0.09685
2852.00000    0.09298
2852.50000    0.08871
2853.00000    0.08408
2853.50000    0.07914
2854.00000    0.07392
2854.50000    0.06843
2855.00000    0.06267
2855.50000    0.05664
2856.00000    0.05033
2856.50000    0.04374
2857.00000    0.03685
2857.50000    0.02969
2858.00000    0.02227
2858.50000    0.01463
2859.00000    0.00683
2859.50000   -0.00105
2860.00000   -0.00891
2860.50000   -0.01665
2861.00000   -0.02414
2861.50000   -0.03125
2862.00000   -0.03785
2862.50000   -0.04382
2863.00000   -0.04903
2863.50000   -0.05338
2864.00000   -0.05677
2864.50000   -0.05912
2865.00000   -0.06039
2865.50000   -0.06052
2866.00000   -0.05951
2866.50000   -0.05734
2867.00000   -0.05404
2867.50000   -0.04964
2868.00000   -0.04420
2868.50000   -0.03780
2869.00000   -0.03051
2869.50000   -0.02246
2870.00000   -0.01378
2870.50000   -0.00463
2871.00000    0.00482
2871.50000    0.01436
2872.00000    0.02379
2872.50000    0.03287
2873.00000    0.04137
2873.50000    0.04906
2874.00000    0.05573
2874.50000    0.06116
2875.00000    0.06520
2875.50000    0.06770
2876.00000    0.06860
2876.50000    0.06787
2877.00000    0.06553
2877.50000    0.06169
2878.00000    0.05649
2878.50000    0.05014
2879.00000    0.04290
2879.50000    0.03503
2880.00000    0.02684
2880.50000    0.01864
2881.00000    0.01071
2881.50000    0.00332
2882.00000   -0.00331
2882.50000   -0.00901
2883.00000   -0.01366
2883.50000   -0.01721
2884.00000   -0.01967
2884.50000   -0.02111
2885.00000   -0.02166
2885.50000   -0.02147
2886.00000   -0.02072
2886.50000   -0.01964
2887.00000   -0.01841
2887.50000   -0.01722
2888.00000   -0.01626
2888.50000   -0.01564
2889.00000   -0.01546
2889.50000   -0.01577
2890.00000   -0.01657
2890.50000   -0.01781
2891.00000   -0.01942
2891.50000   -0.02129
2892.00000   -0.02329
2892.50000   -0.02528
2893.00000   -0.02712
2893.50000   -0.02869
2894.00000   -0.02987
2894.50000   -0.03058
2895.00000   -0.03076
2895.50000   -0.03040
2896.00000   -0.02951
2896.50000   -0.02813
2897.00000   -0.02631
2897.50000   -0.02415
2898.00000   -0.02172
2898.50000   -0.01913
2899.00000   -0.01644
2899.50000   -0.01372
