1200.50000    0.04131
1201.00000    0.03921
1201.50000    0.03706
1202.00000    0.03484
1202.50000    0.03251
1203.00000    0.03006
1203.50000    0.02750
1204.00000    0.02484
1204.50000    0.02210
1205.00000    0.01931
1205.50000    0.01652
1206.00000    0.01378
1206.50000    0.01111
1207.00000    0.00857
1207.50000    0.00619
1208.00000    0.00397
1208.50000    0.00195
1209.00000    0.00012
1209.50000   -0.00152
1210.00000   -0.00301
1210.50000   -0.00435
1211.00000   -0.00558
1211.50000   -0.00672
1212.00000   -0.00782
1212.50000   -0.00888
1213.00000   -0.00992
1213.50000   -0.01095
1214.00000   -0.01196
1214.50000   -0.01293
1215.00000   -0.01384
1215.50000   -0.01463
1216.00000   -0.01526
1216.50000   -0.01568
1217.00000   -0.01582
1217.50000   -0.01563
1218.00000   -0.01505
1218.50000   -0.01404
1219.00000   -0.01257
1219.50000   -0.01063
1220.00000   -0.00820
1220.50000   -0.00531
1221.00000   -0.00200
1221.50000    0.00167
1222.00000    0.00563
1222.50000    0.00977
1223.00000    0.01401
1223.50000    0.01821
1224.00000    0.02226
1224.50000    0.02604
1225.00000    0.02944
1225.50000    0.03234
1226.00000    0.03465
1226.50000    0.03629
1227.00000    0.03721
1227.50000    0.03735
1228.00000    0.03672
1228.50000    0.03532
1229.00000    0.03320
1229.50000    0.03039
1230.00000    0.02700
1230.50000    0.02309
1231.00000    0.01879
1231.50000    0.01420
1232.00000    0.00944
1232.50000    0.00462
1233.00000   -0.00015
1233.50000   -0.00477
1234.00000   -0.00916
1234.50000   -0.01327
1235.00000   -0.01704
1235.50000   -0.02045
1236.00000   -0.02352
1236.50000   -0.02626
1237.00000   -0.02872
1237.50000   -0.03095
1238.00000   -0.03303
1238.50000   -0.03504
1239.00000   -0.03707
1239.50000   -0.03918
1240.00000   -0.04144
1240.50000   -0.04393
1241.00000   -0.04666
1241.50000   -0.04966
1242.00000   -0.05293
1242.50000   -0.05642
1243.00000   -0.06007
1243.50000   -0.06381
1244.00000   -0.06753
1244.50000   -0.07110
1245.00000   -0.07438
1245.50000   -0.07724
1246.00000   -0.07952
1246.50000   -0.08111
1247.00000   -0.08187
1247.50000   -0.08170
1248.00000   -0.08054
1248.50000   -0.07833
1249.00000   -0.07507
1249.50000   -0.07078
1250.00000   -0.06551
1250.50000   -0.05936
1251.00000   -0.05243
1251.50000   -0.04488
1252.00000   -0.03686
1252.50000   -0.02854
1253.00000   -0.02011
1253.50000   -0.01173
1254.00000   -0.00356
1254.50000    0.00424
1255.00000    0.01155
1255.50000    0.01828
1256.00000    0.02434
1256.50000    0.02971
1257.00000    0.03437
1257.50000    0.03834
1258.00000    0.04164
1258.50000    0.04436
1259.00000    0.04655
1259.50000    0.04832
1260.00000    0.04974
1260.50000    0.05092
1261.00000    0.05193
1261.50000    0.05285
1262.00000    0.05374
1262.50000    0.05464
1263.00000    0.05558
1263.50000    0.05657
1264.00000    0.05759
1264.50000    0.05862
1265.00000    0.05962
1265.50000    0.06053
1266.00000    0.06130
1266.50000    0.06185
1267.00000    0.06212
1267.50000    0.06204
1268.00000    0.06153
1268.50000    0.06055
1269.00000    0.05903
1269.50000    0.05692
1270.00000    0.05420
1270.50000    0.05083
1271.00000    0.04681
1271.50000    0.04213
1272.00000    0.03679
1272.50000    0.03084
1273.00000    0.02430
1273.50000    0.01722
1274.00000    0.00969
1274.50000    0.00177
1275.00000   -0.00642
1275.50000   -0.01477
1276.00000   -0.02316
1276.50000   -0.03143
1277.00000   -0.03943
1277.50000   -0.04701
1278.00000   -0.05398
1278.50000   -0.06018
1279.00000   -0.06545
1279.50000   -0.06964
1280.00000   -0.07260
1280.50000   -0.07422
1281.00000   -0.07441
1281.50000   -0.07312
1282.00000   -0.07031
1282.50000   -0.06602
1283.00000   -0.06029
1283.50000   -0.05321
1284.00000   -0.04492
1284.50000   -0.03558
1285.00000   -0.02539
1285.50000   -0.01458
1286.00000   -0.00337
1286.50000    0.00798
1287.00000    0.01922
1287.50000    0.03010
1288.00000    0.04040
1288.50000    0.04991
1289.00000    0.05845
1289.50000    0.06586
1290.00000    0.07204
1290.50000    0.07691
1291.00000    0.08044
1291.50000    0.08263
1292.00000    0.08353
1292.50000    0.08320
1293.00000    0.08173
1293.50000    0.07927
1294.00000    0.07593
1294.50000    0.07187
1295.00000    0.06723
1295.50000    0.06216
1296.00000    0.05680
1296.50000    0.05127
1297.00000    0.04568
1297.50000    0.04011
1298.00000    0.03463
1298.50000    0.02927
1299.00000    0.02407
1299.50000    0.01902
1300.00000    0.01411
1300.50000    0.00930
1301.00000    0.00455
1301.50000   -0.00019
1302.00000   -0.00498
1302.50000   -0.00987
1303.00000   -0.01491
1303.50000   -0.02013
1304.00000   -0.02558
1304.50000   -0.03125
1305.00000   -0.03716
1305.50000   -0.04327
1306.00000   -0.04954
1306.50000   -0.05592
1307.00000   -0.06233
1307.50000   -0.06866
1308.00000   -0.07481
1308.50000   -0.08065
1309.00000   -0.08606
1309.50000   -0.09090
1310.00000   -0.09503
1310.50000   -0.09833
1311.00000   -0.10068
1311.50000   -0.10198
1312.00000   -0.10214
1312.50000   -0.10110
1313.00000   -0.09883
1313.50000   -0.09532
1314.00000   -0.09060
1314.50000   -0.08472
1315.00000   -0.07776
1315.50000   -0.06984
1316.00000   -0.06109
1316.50000   -0.05167
1317.00000   -0.04176
1317.50000   -0.03154
1318.00000   -0.02121
1318.50000   -0.01097
1319.00000   -0.00101
1319.50000    0.00847
1320.00000    0.01731
1320.50000    0.02533
1321.00000    0.03241
1321.50000    0.03841
1322.00000    0.04326
1322.50000    0.04687
1323.00000    0.04920
1323.50000    0.05025
1324.00000    0.05000
1324.50000    0.04850
1325.00000    0.04579
1325.50000    0.04195
1326.00000    0.03706
1326.50000    0.03124
1327.00000    0.02462
1327.50000    0.01733
1328.00000    0.00953
1328.50000    0.00138
1329.00000   -0.00694
1329.50000   -0.01526
1330.00000   -0.02338
1330.50000   -0.03113
1331.00000   -0.03832
1331.50000   -0.04476
1332.00000   -0.05028
1332.50000   -0.05474
1333.00000   -0.05798
1333.50000   -0.05990
1334.00000   -0.06042
1334.50000   -0.05946
1335.00000   -0.05702
1335.50000   -0.05312
1336.00000   -0.04780
1336.50000   -0.04117
1337.00000   -0.03337
1337.50000   -0.02457
1338.00000   -0.01499
1338.50000   -0.00485
1339.00000    0.00557
1339.50000    0.01601
1340.00000    0.02618
1340.50000    0.03580
1341.00000    0.04461
1341.50000    0.05236
1342.00000    0.05884
1342.50000    0.06388
1343.00000    0.06734
1343.50000    0.06915
1344.00000    0.06927
1344.50000    0.06772
1345.00000    0.06459
1345.50000    0.06001
1346.00000    0.05415
1346.50000    0.04725
1347.00000    0.03954
1347.50000    0.03132
1348.00000    0.02289
1348.50000    0.01454
1349.00000    0.00660
1349.50000   -0.00066
1350.00000   -0.00696
1350.50000   -0.01206
1351.00000   -0.01576
1351.50000   -0.01791
1352.00000   -0.01840
1352.50000   -0.01717
1353.00000   -0.01422
1353.50000   -0.00958
1354.00000   -0.00337
1354.50000    0.00429
1355.00000    0.01319
1355.50000    0.02313
1356.00000    0.03385
1356.50000    0.04508
1357.00000    0.05653
1357.50000    0.06793
1358.00000    0.07898
1358.50000    0.08943
1359.00000    0.09902
1359.50000    0.10753
1360.00000    0.11478
1360.50000    0.12061
1361.00000    0.12491
1361.50000    0.12761
1362.00000    0.12868
1362.50000    0.12813
1363.00000    0.12600
1363.50000    0.12239
1364.00000    0.11741
1364.50000    0.11119
1365.00000    0.10388
1365.50000    0.09567
1366.00000    0.08673
1366.50000    0.07723
1367.00000    0.06735
1367.50000    0.05727
1368.00000    0.04712
1368.50000    0.03705
1369.00000    0.02717
1369.50000    0.01758
1370.00000    0.00837
1370.50000   -0.00041
1371.00000   -0.00872
1371.50000   -0.01651
1372.00000   -0.02378
1372.50000   -0.03053
1373.00000   -0.03676
1373.50000   -0.04247
1374.00000   -0.04769
1374.50000   -0.05243
1375.00000   -0.05670
1375.50000   -0.06053
1376.00000   -0.06392
1376.50000   -0.06690
1377.00000   -0.06948
1377.50000   -0.07167
1378.00000   -0.07348
1378.50000   -0.07495
1379.00000   -0.07607
1379.50000   -0.07688
1380.00000   -0.07739
1380.50000   -0.07762
1381.00000   -0.07758
1381.50000   -0.07730
1382.00000   -0.07679
1382.50000   -0.07605
1383.00000   -0.07511
1383.50000   -0.07394
1384.00000   -0.07256
1384.50000   -0.07094
1385.00000   -0.06906
1385.50000   -0.06691
1386.00000   -0.06446
1386.50000   -0.06168
1387.00000   -0.05854
1387.50000   -0.05504
1388.00000   -0.05115
1388.50000   -0.04688
1389.00000   -0.04223
1389.50000   -0.03723
1390.00000   -0.03193
1390.50000   -0.02638
1391.00000   -0.02064
1391.50000   -0.01482
1392.00000   -0.00900
1392.50000   -0.00328
1393.00000    0.00223
1393.50000    0.00742
1394.00000    0.01220
1394.50000    0.01649
1395.00000    0.02020
1395.50000    0.02331
1396.00000    0.02577
1396.50000    0.02760
1397.00000    0.02881
1397.50000    0.02945
1398.00000    0.02961
1398.50000    0.02936
1399.00000    0.02882
1399.50000    0.02811
1400.00000    0.02734
1400.50000    0.02663
1401.00000    0.02610
1401.50000    0.02584
1402.00000    0.02591
1402.50000    0.02638
1403.00000    0.02726
1403.50000    0.02854
1404.00000    0.03018
1404.50000    0.03210
1405.00000    0.03421
1405.50000    0.03639
1406.00000    0.03850
1406.50000    0.04039
1407.00000    0.04191
1407.50000    0.04291
1408.00000    0.04325
1408.50000    0.04281
1409.00000    0.04148
1409.50000    0.03920
1410.00000    0.03592
1410.50000    0.03163
1411.00000    0.02636
1411.50000    0.02017
1412.00000    0.01316
1412.50000    0.00545
1413.00000   -0.00282
1413.50000   -0.01148
1414.00000   -0.02034
1414.50000   -0.02923
1415.00000   -0.03796
1415.50000   -0.04637
1416.00000   -0.05428
1416.50000   -0.06155
1417.00000   -0.06808
1417.50000   -0.07377
1418.00000   -0.07856
1418.50000   -0.08241
1419.00000   -0.08532
1419.50000   -0.08731
1420.00000   -0.08843
1420.50000   -0.08875
1421.00000   -0.08836
1421.50000   -0.08733
1422.00000   -0.08577
1422.50000   -0.08378
1423.00000   -0.08146
1423.50000   -0.07887
1424.00000   -0.07608
1424.50000   -0.07316
1425.00000   -0.07013
1425.50000   -0.06700
1426.00000   -0.06377
1426.50000   -0.06042
1427.00000   -0.05693
1427.50000   -0.05324
1428.00000   -0.04932
1428.50000   -0.04511
1429.00000   -0.04057
1429.50000   -0.03567
1430.00000   -0.03039
1430.50000   -0.02472
1431.00000   -0.01867
1431.50000   -0.01228
1432.00000   -0.00561
1432.50000    0.00127
1433.00000    0.00826
1433.50000    0.01525
1434.00000    0.02212
1434.50000    0.02874
1435.00000    0.03497
1435.50000    0.04071
1436.00000    0.04582
1436.50000    0.05020
1437.00000    0.05378
1437.50000    0.05647
1438.00000    0.05825
1438.50000    0.05909
1439.00000    0.05900
1439.50000    0.05802
1440.00000    0.05619
1440.50000    0.05360
1441.00000    0.05034
1441.50000    0.04651
1442.00000    0.04222
1442.50000    0.03759
1443.00000    0.03274
1443.50000    0.02777
1444.00000    0.02280
1444.50000    0.01792
1445.00000    0.01323
1445.50000    0.00880
1446.00000    0.00469
1446.50000    0.00098
1447.00000   -0.00229
1447.50000   -0.00508
1448.00000   -0.00735
1448.50000   -0.00905
1449.00000   -0.01017
1449.50000   -0.01066
1450.00000   -0.01051
1450.50000   -0.00967
1451.00000   -0.00812
1451.50000   -0.00583
1452.00000   -0.00279
1452.50000    0.00103
1453.00000    0.00563
1453.50000    0.01101
1454.00000    0.01716
1454.50000    0.02405
1455.00000    0.03163
1455.50000    0.03986
1456.00000    0.04865
1456.50000    0.05792
1457.00000    0.06755
1457.50000    0.07745
1458.00000    0.08747
1458.50000    0.09749
1459.00000    0.10736
1459.50000    0.11695
1460.00000    0.12612
1460.50000    0.13472
1461.00000    0.14265
1461.50000    0.14976
1462.00000    0.15596
1462.50000    0.16116
1463.00000    0.16525
1463.50000    0.16818
1464.00000    0.16987
1464.50000    0.17027
1465.00000    0.16935
1465.50000    0.16706
1466.00000    0.16337
1466.50000    0.15828
1467.00000    0.15176
1467.50000    0.14382
1468.00000    0.13445
1468.50000    0.12367
1469.00000    0.11151
1469.50000    0.09799
1470.00000    0.08317
1470.50000    0.06711
1471.00000    0.04990
1471.50000    0.03165
1472.00000    0.01246
1472.50000   -0.00750
1473.00000   -0.02809
1473.50000   -0.04911
1474.00000   -0.07038
1474.50000   -0.09168
1475.00000   -0.11279
1475.50000   -0.13348
1476.00000   -0.15354
1476.50000   -0.17272
1477.00000   -0.19082
1477.50000   -0.20761
1478.00000   -0.22291
1478.50000   -0.23653
1479.00000   -0.24832
1479.50000   -0.25814
1480.00000   -0.26588
1480.50000   -0.27146
1481.00000   -0.27481
1481.50000   -0.27589
1482.00000   -0.27471
1482.50000   -0.27126
1483.00000   -0.26559
1483.50000   -0.25776
1484.00000   -0.24783
1484.50000   -0.23592
1485.00000   -0.22214
1485.50000   -0.20662
1486.00000   -0.18952
1486.50000   -0.17101
1487.00000   -0.15129
1487.50000   -0.13057
1488.00000   -0.10906
1488.50000   -0.08701
1489.00000   -0.06467
1489.50000   -0.04230
1490.00000   -0.02018
1490.50000    0.00142
1491.00000    0.02224
1491.50000    0.04202
1492.00000    0.06051
1492.50000    0.07749
1493.00000    0.09278
1493.50000    0.10620
1494.00000    0.11765
1494.50000    0.12704
1495.00000    0.13434
1495.50000    0.13958
1496.00000    0.14282
1496.50000    0.14416
1497.00000    0.14376
1497.50000    0.14181
1498.00000    0.13852
1498.50000    0.13415
1499.00000    0.12893
1499.50000    0.12313
1500.00000    0.11701
1500.50000    0.11081
1501.00000    0.10475
1501.50000    0.09902
1502.00000    0.09377
1502.50000    0.08913
1503.00000    0.08515
1503.50000    0.08187
1504.00000    0.07927
1504.50000    0.07730
1505.00000    0.07586
1505.50000    0.07485
1506.00000    0.07410
1506.50000    0.07346
1507.00000    0.07277
1507.50000    0.07184
1508.00000    0.07050
1508.50000    0.06862
1509.00000    0.06605
1509.50000    0.06267
1510.00000    0.05841
1510.50000    0.05320
1511.00000    0.04704
1511.50000    0.03993
1512.00000    0.03191
1512.50000    0.02306
1513.00000    0.01348
1513.50000    0.00330
1514.00000   -0.00734
1514.50000   -0.01829
1515.00000   -0.02937
1515.50000   -0.04042
1516.00000   -0.05125
1516.50000   -0.06170
1517.00000   -0.07162
1517.50000   -0.08085
1518.00000   -0.08927
1518.50000   -0.09676
1519.00000   -0.10323
1519.50000   -0.10862
1520.00000   -0.11287
1520.50000   -0.11596
1521.00000   -0.11788
1521.50000   -0.11866
1522.00000   -0.11832
1522.50000   -0.11691
1523.00000   -0.11448
1523.50000   -0.11111
1524.00000   -0.10687
1524.50000   -0.10183
1525.00000   -0.09607
1525.50000   -0.08965
1526.00000   -0.08265
1526.50000   -0.07513
1527.00000   -0.06713
1527.50000   -0.05871
1528.00000   -0.04992
1528.50000   -0.04079
1529.00000   -0.03138
1529.50000   -0.02171
1530.00000   -0.01185
1530.50000   -0.00184
1531.00000    0.00825
1531.50000    0.01833
1532.00000    0.02834
1532.50000    0.03815
1533.00000    0.04766
1533.50000    0.05675
1534.00000    0.06528
1534.50000    0.07313
1535.00000    0.08015
1535.50000    0.08623
1536.00000    0.09125
1536.50000    0.09511
1537.00000    0.09774
1537.50000    0.09910
1538.00000    0.09916
1538.50000    0.09795
1539.00000    0.09552
1539.50000    0.09194
1540.00000    0.08733
1540.50000    0.08183
1541.00000    0.07561
1541.50000    0.06884
1542.00000    0.06172
1542.50000    0.05444
1543.00000    0.04718
1543.50000    0.04012
1544.00000    0.03341
1544.50000    0.02717
1545.00000    0.02150
1545.50000    0.01645
1546.00000    0.01205
1546.50000    0.00828
1547.00000    0.00508
1547.50000    0.00239
1548.00000    0.00008
1548.50000   -0.00195
1549.00000   -0.00387
1549.50000   -0.00581
1550.00000   -0.00791
1550.50000   -0.01030
1551.00000   -0.01312
1551.50000   -0.01643
1552.00000   -0.02033
1552.50000   -0.02482
1553.00000   -0.02993
1553.50000   -0.03560
1554.00000   -0.04176
1554.50000   -0.04832
1555.00000   -0.05514
1555.50000   -0.06205
1556.00000   -0.06888
1556.50000   -0.07542
1557.00000   -0.08146
1557.50000   -0.08681
1558.00000   -0.09123
1558.50000   -0.09454
1559.00000   -0.09651
1559.50000   -0.09698
1560.00000   -0.09575
1560.50000   -0.09266
1561.00000   -0.08757
1561.50000   -0.08032
1562.00000   -0.07078
1562.50000   -0.05883
1563.00000   -0.04434
1563.50000   -0.02719
1564.00000   -0.00726
1564.50000    0.01557
1565.00000    0.04144
1565.50000    0.07048
1566.00000    0.10281
1566.50000    0.13858
1567.00000    0.17791
1567.50000    0.22093
1568.00000    0.26775
1568.50000    0.31846
1569.00000    0.37313
1569.50000    0.43179
1570.00000    0.49446
1570.50000    0.56110
1571.00000    0.63163
1571.50000    0.70592
1572.00000    0.78379
1572.50000    0.86502
1573.00000    0.94933
1573.50000    1.03641
1574.00000    1.12590
1574.50000    1.21740
1575.00000    1.31048
1575.50000    1.40471
1576.00000    1.49963
1576.50000    1.59478
1577.00000    1.68969
1577.50000    1.78393
1578.00000    1.87704
1578.50000    1.96863
1579.00000    2.05828
1579.50000    2.14564
1580.00000    2.23036
1580.50000    2.31209
1581.00000    2.39053
1581.50000    2.46538
1582.00000    2.53634
1582.50000    2.60313
1583.00000    2.66545
1583.50000    2.72302
1584.00000    2.77554
1584.50000    2.82272
1585.00000    2.86425
1585.50000    2.89985
1586.00000    2.92920
1586.50000    2.95205
1587.00000    2.96812
1587.50000    2.97718
1588.00000    2.97905
1588.50000    2.97358
1589.00000    2.96067
1589.50000    2.94031
1590.00000    2.91252
1590.50000    2.87743
1591.00000    2.83523
1591.50000    2.78617
1592.00000    2.73057
1592.50000    2.66883
1593.00000    2.60138
1593.50000    2.52872
1594.00000    2.45138
1594.50000    2.36989
1595.00000    2.28482
1595.50000    2.19676
1596.00000    2.10626
1596.50000    2.01387
1597.00000    1.92013
1597.50000    1.82554
1598.00000    1.73059
1598.50000    1.63572
1599.00000    1.54134
1599.50000    1.44785
1600.00000    1.35559
1600.50000    1.26492
1601.00000    1.17613
1601.50000    1.08952
1602.00000    1.00538
1602.50000    0.92397
1603.00000    0.84555
1603.50000    0.77036
1604.00000    0.69863
1604.50000    0.63058
1605.00000    0.56640
1605.50000    0.50627
1606.00000    0.45033
1606.50000    0.39870
1607.00000    0.35145
1607.50000    0.30860
1608.00000    0.27015
1608.50000    0.23603
1609.00000    0.20613
1609.50000    0.18028
1610.00000    0.15827
1610.50000    0.13985
1611.00000    0.12472
1611.50000    0.11254
1612.00000    0.10296
1612.50000    0.09561
1613.00000    0.09010
1613.50000    0.08604
1614.00000    0.08308
1614.50000    0.08086
1615.00000    0.07907
1615.50000    0.07741
1616.00000    0.07565
1616.50000    0.07359
1617.00000    0.07108
1617.50000    0.06803
1618.00000    0.06438
1618.50000    0.06013
1619.00000    0.05532
1619.50000    0.05003
1620.00000    0.04437
1620.50000    0.03845
1621.00000    0.03243
1621.50000    0.02645
1622.00000    0.02068
1622.50000    0.01525
1623.00000    0.01028
1623.50000    0.00590
1624.00000    0.00216
1624.50000   -0.00086
1625.00000   -0.00316
1625.50000   -0.00474
1626.00000   -0.00565
1626.50000   -0.00594
1627.00000   -0.00571
1627.50000   -0.00505
1628.00000   -0.00409
1628.50000   -0.00294
1629.00000   -0.00172
1629.50000   -0.00056
1630.00000    0.00046
1630.50000    0.00123
1631.00000    0.00169
1631.50000    0.00178
1632.00000    0.00146
1632.50000    0.00072
1633.00000   -0.00043
1633.50000   -0.00199
1634.00000   -0.00392
1634.50000   -0.00618
1635.00000   -0.00873
1635.50000   -0.01154
1636.00000   -0.01455
1636.50000   -0.01774
1637.00000   -0.02108
1637.50000   -0.02454
1638.00000   -0.02811
1638.50000   -0.03177
1639.00000   -0.03552
1639.50000   -0.03936
1640.00000   -0.04326
1640.50000   -0.04721
1641.00000   -0.05119
1641.50000   -0.05517
1642.00000   -0.05909
1642.50000   -0.06291
1643.00000   -0.06655
1643.50000   -0.06994
1644.00000   -0.07300
1644.50000   -0.07564
1645.00000   -0.07779
1645.50000   -0.07936
1646.00000   -0.08030
1646.50000   -0.08055
1647.00000   -0.08010
1647.50000   -0.07894
1648.00000   -0.07710
1648.50000   -0.07462
1649.00000   -0.07159
1649.50000   -0.06811
1650.00000   -0.06429
1650.50000   -0.06028
1651.00000   -0.05621
1651.50000   -0.05222
1652.00000   -0.04847
1652.50000   -0.04506
1653.00000   -0.04212
1653.50000   -0.03972
1654.00000   -0.03792
1654.50000   -0.03675
1655.00000   -0.03619
1655.50000   -0.03620
1656.00000   -0.03672
1656.50000   -0.03763
1657.00000   -0.03881
1657.50000   -0.04011
1658.00000   -0.04137
1658.50000   -0.04243
1659.00000   -0.04311
1659.50000   -0.04325
1660.00000   -0.04272
1660.50000   -0.04137
1661.00000   -0.03911
1661.50000   -0.03586
1662.00000   -0.03158
1662.50000   -0.02625
1663.00000   -0.01989
1663.50000   -0.01256
1664.00000   -0.00433
1664.50000    0.00467
1665.00000    0.01431
1665.50000    0.02445
1666.00000    0.03489
1666.50000    0.04545
1667.00000    0.05593
1667.50000    0.06614
1668.00000    0.07586
1668.50000    0.08490
1669.00000    0.09307
1669.50000    0.10020
1670.00000    0.10613
1670.50000    0.11072
1671.00000    0.11386
1671.50000    0.11546
1672.00000    0.11548
1672.50000    0.11387
1673.00000    0.11066
1673.50000    0.10587
1674.00000    0.09958
1674.50000    0.09188
1675.00000    0.08291
1675.50000    0.07282
1676.00000    0.06178
1676.50000    0.04998
1677.00000    0.03764
1677.50000    0.02497
1678.00000    0.01220
1678.50000   -0.00047
1679.00000   -0.01281
1679.50000   -0.02461
1680.00000   -0.03568
1680.50000   -0.04585
1681.00000   -0.05496
1681.50000   -0.06289
1682.00000   -0.06952
1682.50000   -0.07479
1683.00000   -0.07864
1683.50000   -0.08106
1684.00000   -0.08206
1684.50000   -0.08167
1685.00000   -0.07996
1685.50000   -0.07702
1686.00000   -0.07295
1686.50000   -0.06788
1687.00000   -0.06195
1687.50000   -0.05531
1688.00000   -0.04813
1688.50000   -0.04056
1689.00000   -0.03276
1689.50000   -0.02489
1690.00000   -0.01710
1690.50000   -0.00954
1691.00000   -0.00232
1691.50000    0.00443
1692.00000    0.01063
1692.50000    0.01618
1693.00000    0.02102
1693.50000    0.02511
1694.00000    0.02842
1694.50000    0.03092
1695.00000    0.03262
1695.50000    0.03352
1696.00000    0.03366
1696.50000    0.03306
1697.00000    0.03177
1697.50000    0.02984
1698.00000    0.02732
1698.50000    0.02428
1699.00000    0.02079
1699.50000    0.01691
1700.00000    0.01273
1700.50000    0.00833
1701.00000    0.00380
1701.50000   -0.00078
1702.00000   -0.00532
1702.50000   -0.00972
1703.00000   -0.01389
1703.50000   -0.01774
1704.00000   -0.02119
1704.50000   -0.02416
1705.00000   -0.02659
1705.50000   -0.02841
1706.00000   -0.02961
1706.50000   -0.03014
1707.00000   -0.03003
1707.50000   -0.02929
1708.00000   -0.02795
1708.50000   -0.02610
1709.00000   -0.02381
1709.50000   -0.02119
1710.00000   -0.01835
1710.50000   -0.01542
1711.00000   -0.01252
1711.50000   -0.00979
1712.00000   -0.00735
1712.50000   -0.00531
1713.00000   -0.00377
1713.50000   -0.00280
1714.00000   -0.00246
1714.50000   -0.00277
1715.00000   -0.00372
1715.50000   -0.00529
1716.00000   -0.00742
1716.50000   -0.01004
1717.00000   -0.01303
1717.50000   -0.01628
1718.00000   -0.01966
1718.50000   -0.02302
1719.00000   -0.02622
1719.50000   -0.02910
1720.00000   -0.03152
1720.50000   -0.03333
1721.00000   -0.03441
1721.50000   -0.03465
1722.00000   -0.03393
1722.50000   -0.03218
1723.00000   -0.02933
1723.50000   -0.02533
1724.00000   -0.02016
1724.50000   -0.01382
1725.00000   -0.00634
1725.50000    0.00224
1726.00000    0.01185
1726.50000    0.02238
1727.00000    0.03371
1727.50000    0.04568
1728.00000    0.05811
1728.50000    0.07081
1729.00000    0.08353
1729.50000    0.09604
1730.00000    0.10807
1730.50000    0.11936
1731.00000    0.12964
1731.50000    0.13862
1732.00000    0.14606
1732.50000    0.15172
1733.00000    0.15538
1733.50000    0.15687
1734.00000    0.15606
1734.50000    0.15286
1735.00000    0.14723
1735.50000    0.13919
1736.00000    0.12882
1736.50000    0.11624
1737.00000    0.10166
1737.50000    0.08528
1738.00000    0.06739
1738.50000    0.04830
1739.00000    0.02832
1739.50000    0.00782
1740.00000   -0.01287
1740.50000   -0.03339
1741.00000   -0.05342
1741.50000   -0.07263
1742.00000   -0.09077
1742.50000   -0.10757
1743.00000   -0.12284
1743.50000   -0.13640
1744.00000   -0.14814
1744.50000   -0.15798
1745.00000   -0.16589
1745.50000   -0.17185
1746.00000   -0.17591
1746.50000   -0.17814
1747.00000   -0.17862
1747.50000   -0.17747
1748.00000   -0.17482
1748.50000   -0.17081
1749.00000   -0.16558
1749.50000   -0.15929
1750.00000   -0.15208
1750.50000   -0.14410
1751.00000   -0.13547
1751.50000   -0.12633
1752.00000   -0.11678
1752.50000   -0.10694
1753.00000   -0.09688
1753.50000   -0.08669
1754.00000   -0.07643
1754.50000   -0.06614
1755.00000   -0.05589
1755.50000   -0.04569
1756.00000   -0.03559
1756.50000   -0.02559
1757.00000   -0.01573
1757.50000   -0.00603
1758.00000    0.00349
1758.50000    0.01280
1759.00000    0.02187
1759.50000    0.03065
1760.00000    0.03909
1760.50000    0.04714
1761.00000    0.05473
1761.50000    0.06179
1762.00000    0.06825
1762.50000    0.07403
1763.00000    0.07905
1763.50000    0.08325
1764.00000    0.08657
1764.50000    0.08895
1765.00000    0.09036
1765.50000    0.09079
1766.00000    0.09025
1766.50000    0.08877
1767.00000    0.08641
1767.50000    0.08326
1768.00000    0.07941
1768.50000    0.07501
1769.00000    0.07020
1769.50000    0.06514
1770.00000    0.06002
1770.50000    0.05500
1771.00000    0.05027
1771.50000    0.04599
1772.00000    0.04233
1772.50000    0.03940
1773.00000    0.03734
1773.50000    0.03622
1774.00000    0.03610
1774.50000    0.03700
1775.00000    0.03891
1775.50000    0.04178
1776.00000    0.04554
1776.50000    0.05008
1777.00000    0.05527
1777.50000    0.06098
1778.00000    0.06702
1778.50000    0.07325
1779.00000    0.07947
1779.50000    0.08553
1780.00000    0.09126
1780.50000    0.09652
1781.00000    0.10116
1781.50000    0.10510
1782.00000    0.10823
1782.50000    0.11049
1783.00000    0.11185
1783.50000    0.11229
1784.00000    0.11181
1784.50000    0.11045
1785.00000    0.10824
1785.50000    0.10526
1786.00000    0.10156
1786.50000    0.09723
1787.00000    0.09237
1787.50000    0.08705
1788.00000    0.08137
1788.50000    0.07543
1789.00000    0.06932
1789.50000    0.06311
1790.00000    0.05689
1790.50000    0.05073
1791.00000    0.04470
1791.50000    0.03883
1792.00000    0.03318
1792.50000    0.02776
1793.00000    0.02260
1793.50000    0.01768
1794.00000    0.01300
1794.50000    0.00850
1795.00000    0.00414
1795.50000   -0.00014
1796.00000   -0.00444
1796.50000   -0.00883
1797.00000   -0.01343
1797.50000   -0.01834
1798.00000   -0.02366
1798.50000   -0.02949
1799.00000   -0.03593
1799.50000   -0.04302
1800.00000   -0.05084
1800.50000   -0.05938
1801.00000   -0.06864
1801.50000   -0.07858
1802.00000   -0.08911
1802.50000   -0.10012
1803.00000   -0.11144
1803.50000   -0.12292
1804.00000   -0.13433
1804.50000   -0.14546
1805.00000   -0.15608
1805.50000   -0.16596
1806.00000   -0.17485
1806.50000   -0.18257
1807.00000   -0.18892
1807.50000   -0.19374
1808.00000   -0.19692
1808.50000   -0.19839
1809.00000   -0.19812
1809.50000   -0.19612
1810.00000   -0.19245
1810.50000   -0.18721
1811.00000   -0.18053
1811.50000   -0.17259
1812.00000   -0.16355
1812.50000   -0.15362
1813.00000   -0.14300
1813.50000   -0.13188
1814.00000   -0.12044
1814.50000   -0.10886
1815.00000   -0.09730
1815.50000   -0.08587
1816.00000   -0.07469
1816.50000   -0.06383
1817.00000   -0.05337
1817.50000   -0.04333
1818.00000   -0.03375
1818.50000   -0.02464
1819.00000   -0.01600
1819.50000   -0.00785
1820.00000   -0.00016
1820.50000    0.00705
1821.00000    0.01377
1821.50000    0.02001
1822.00000    0.02575
1822.50000    0.03097
1823.00000    0.03566
1823.50000    0.03979
1824.00000    0.04335
1824.50000    0.04633
1825.00000    0.04871
1825.50000    0.05049
1826.00000    0.05170
1826.50000    0.05234
1827.00000    0.05245
1827.50000    0.05207
1828.00000    0.05126
1828.50000    0.05008
1829.00000    0.04860
1829.50000    0.04689
1830.00000    0.04503
1830.50000    0.04312
1831.00000    0.04123
1831.50000    0.03944
1832.00000    0.03784
1832.50000    0.03651
1833.00000    0.03551
1833.50000    0.03492
1834.00000    0.03479
1834.50000    0.03518
1835.00000    0.03613
1835.50000    0.03768
1836.00000    0.03984
1836.50000    0.04263
1837.00000    0.04604
1837.50000    0.05006
1838.00000    0.05465
1838.50000    0.05977
1839.00000    0.06536
1839.50000    0.07133
1840.00000    0.07759
1840.50000    0.08405
1841.00000    0.09058
1841.50000    0.09705
1842.00000    0.10335
1842.50000    0.10933
1843.00000    0.11486
1843.50000    0.11981
1844.00000    0.12406
1844.50000    0.12750
1845.00000    0.13002
1845.50000    0.13153
1846.00000    0.13196
1846.50000    0.13124
1847.00000    0.12933
1847.50000    0.12621
1848.00000    0.12184
1848.50000    0.11624
1849.00000    0.10940
1849.50000    0.10134
1850.00000    0.09211
1850.50000    0.08174
1851.00000    0.07029
1851.50000    0.05782
1852.00000    0.04441
1852.50000    0.03017
1853.00000    0.01520
1853.50000   -0.00038
1854.00000   -0.01641
1854.50000   -0.03273
1855.00000   -0.04916
1855.50000   -0.06550
1856.00000   -0.08154
1856.50000   -0.09705
1857.00000   -0.11181
1857.50000   -0.12557
1858.00000   -0.13811
1858.50000   -0.14922
1859.00000   -0.15869
1859.50000   -0.16636
1860.00000   -0.17208
1860.50000   -0.17575
1861.00000   -0.17731
1861.50000   -0.17676
1862.00000   -0.17412
1862.50000   -0.16947
1863.00000   -0.16295
1863.50000   -0.15473
1864.00000   -0.14500
1864.50000   -0.13401
1865.00000   -0.12200
1865.50000   -0.10926
1866.00000   -0.09604
1866.50000   -0.08262
1867.00000   -0.06925
1867.50000   -0.05615
1868.00000   -0.04355
1868.50000   -0.03159
1869.00000   -0.02042
1869.50000   -0.01013
1870.00000   -0.00077
1870.50000    0.00764
1871.00000    0.01512
1871.50000    0.02173
1872.00000    0.02754
1872.50000    0.03264
1873.00000    0.03716
1873.50000    0.04119
1874.00000    0.04485
1874.50000    0.04826
1875.00000    0.05150
1875.50000    0.05465
1876.00000    0.05775
1876.50000    0.06085
1877.00000    0.06394
1877.50000    0.06700
1878.00000    0.06998
1878.50000    0.07282
1879.00000    0.07542
1879.50000    0.07768
1880.00000    0.07949
1880.50000    0.08073
1881.00000    0.08128
1881.50000    0.08104
1882.00000    0.07989
1882.50000    0.07776
1883.00000    0.07459
1883.50000    0.07034
1884.00000    0.06501
1884.50000    0.05862
1885.00000    0.05123
1885.50000    0.04292
1886.00000    0.03382
1886.50000    0.02408
1887.00000    0.01386
1887.50000    0.00336
1888.00000   -0.00722
1888.50000   -0.01765
1889.00000   -0.02772
1889.50000   -0.03722
1890.00000   -0.04593
1890.50000   -0.05368
1891.00000   -0.06030
1891.50000   -0.06564
1892.00000   -0.06961
1892.50000   -0.07211
1893.00000   -0.07313
1893.50000   -0.07264
1894.00000   -0.07067
1894.50000   -0.06729
1895.00000   -0.06259
1895.50000   -0.05668
1896.00000   -0.04970
1896.50000   -0.04180
1897.00000   -0.03318
1897.50000   -0.02401
1898.00000   -0.01448
1898.50000   -0.00481
1899.00000    0.00483
1899.50000    0.01422
1900.00000    0.02317
1900.50000    0.03152
1901.00000    0.03909
1901.50000    0.04573
1902.00000    0.05132
1902.50000    0.05574
1903.00000    0.05891
1903.50000    0.06079
1904.00000    0.06135
1904.50000    0.06061
1905.00000    0.05861
1905.50000    0.05543
1906.00000    0.05119
1906.50000    0.04604
1907.00000    0.04015
1907.50000    0.03373
1908.00000    0.02700
1908.50000    0.02020
1909.00000    0.01359
1909.50000    0.00740
1910.00000    0.00189
1910.50000   -0.00273
1911.00000   -0.00622
1911.50000   -0.00841
1912.00000   -0.00915
1912.50000   -0.00832
1913.00000   -0.00581
1913.50000   -0.00161
1914.00000    0.00432
1914.50000    0.01194
1915.00000    0.02119
1915.50000    0.03199
1916.00000    0.04420
1916.50000    0.05770
1917.00000    0.07233
1917.50000    0.08790
1918.00000    0.10424
1918.50000    0.12114
1919.00000    0.13842
1919.50000    0.15585
1920.00000    0.17324
1920.50000    0.19036
1921.00000    0.20702
1921.50000    0.22301
1922.00000    0.23811
1922.50000    0.25212
1923.00000    0.26486
1923.50000    0.27613
1924.00000    0.28577
1924.50000    0.29363
1925.00000    0.29956
1925.50000    0.30348
1926.00000    0.30529
1926.50000    0.30497
1927.00000    0.30250
1927.50000    0.29793
1928.00000    0.29134
1928.50000    0.28283
1929.00000    0.27256
1929.50000    0.26073
1930.00000    0.24754
1930.50000    0.23324
1931.00000    0.21808
1931.50000    0.20230
1932.00000    0.18616
1932.50000    0.16989
1933.00000    0.15371
1933.50000    0.13780
1934.00000    0.12230
1934.50000    0.10732
1935.00000    0.09292
1935.50000    0.07913
1936.00000    0.06592
1936.50000    0.05324
1937.00000    0.04100
1937.50000    0.02909
1938.00000    0.01736
1938.50000    0.00570
1939.00000   -0.00604
1939.50000   -0.01798
1940.00000   -0.03021
1940.50000   -0.04281
1941.00000   -0.05581
1941.50000   -0.06921
1942.00000   -0.08296
1942.50000   -0.09698
1943.00000   -0.11115
1943.50000   -0.12528
1944.00000   -0.13920
1944.50000   -0.15268
1945.00000   -0.16549
1945.50000   -0.17740
1946.00000   -0.18816
1946.50000   -0.19756
1947.00000   -0.20541
1947.50000   -0.21155
1948.00000   -0.21584
1948.50000   -0.21820
1949.00000   -0.21860
1949.50000   -0.21705
1950.00000   -0.21359
1950.50000   -0.20833
1951.00000   -0.20139
1951.50000   -0.19293
1952.00000   -0.18314
1952.50000   -0.17221
1953.00000   -0.16036
1953.50000   -0.14780
1954.00000   -0.13473
1954.50000   -0.12134
1955.00000   -0.10781
1955.50000   -0.09431
1956.00000   -0.08096
1956.50000   -0.06789
1957.00000   -0.05517
1957.50000   -0.04289
1958.00000   -0.03110
1958.50000   -0.01982
1959.00000   -0.00907
1959.50000    0.00115
1960.00000    0.01083
1960.50000    0.01999
1961.00000    0.02865
1961.50000    0.03683
1962.00000    0.04456
1962.50000    0.05184
1963.00000    0.05872
1963.50000    0.06521
1964.00000    0.07134
1964.50000    0.07712
1965.00000    0.08257
1965.50000    0.08772
1966.00000    0.09256
1966.50000    0.09711
1967.00000    0.10137
1967.50000    0.10531
1968.00000    0.10892
1968.50000    0.11217
1969.00000    0.11503
1969.50000    0.11743
1970.00000    0.11933
1970.50000    0.12065
1971.00000    0.12133
1971.50000    0.12131
1972.00000    0.12051
1972.50000    0.11888
1973.00000    0.11638
1973.50000    0.11297
1974.00000    0.10865
1974.50000    0.10341
1975.00000    0.09730
1975.50000    0.09038
1976.00000    0.08271
1976.50000    0.07441
1977.00000    0.06559
1977.50000    0.05640
1978.00000    0.04699
1978.50000    0.03752
1979.00000    0.02815
1979.50000    0.01905
1980.00000    0.01038
1980.50000    0.00230
1981.00000   -0.00505
1981.50000   -0.01155
1982.00000   -0.01709
1982.50000   -0.02156
1983.00000   -0.02488
1983.50000   -0.02701
1984.00000   -0.02790
1984.50000   -0.02752
1985.00000   -0.02587
1985.50000   -0.02296
1986.00000   -0.01883
1986.50000   -0.01352
1987.00000   -0.00712
1987.50000    0.00029
1988.00000    0.00860
1988.50000    0.01765
1989.00000    0.02729
1989.50000    0.03733
1990.00000    0.04757
1990.50000    0.05779
1991.00000    0.06775
1991.50000    0.07720
1992.00000    0.08591
1992.50000    0.09363
1993.00000    0.10013
1993.50000    0.10522
1994.00000    0.10870
1994.50000    0.11046
1995.00000    0.11037
1995.50000    0.10840
1996.00000    0.10454
1996.50000    0.09884
1997.00000    0.09140
1997.50000    0.08236
1998.00000    0.07192
1998.50000    0.06031
1999.00000    0.04776
1999.50000    0.03456
2000.00000    0.02098
2000.50000    0.00732
2001.00000   -0.00616
2001.50000   -0.01921
2002.00000   -0.03159
2002.50000   -0.04310
2003.00000   -0.05359
2003.50000   -0.06293
2004.00000   -0.07103
2004.50000   -0.07783
2005.00000   -0.08333
2005.50000   -0.08754
2006.00000   -0.09049
2006.50000   -0.09226
2007.00000   -0.09291
2007.50000   -0.09253
2008.00000   -0.09121
2008.50000   -0.08905
2009.00000   -0.08614
2009.50000   -0.08256
2010.00000   -0.07840
2010.50000   -0.07373
2011.00000   -0.06863
2011.50000   -0.06318
2012.00000   -0.05744
2012.50000   -0.05148
2013.00000   -0.04538
2013.50000   -0.03922
2014.00000   -0.03306
2014.50000   -0.02700
2015.00000   -0.02112
2015.50000   -0.01549
2016.00000   -0.01021
2016.50000   -0.00535
2017.00000   -0.00098
2017.50000    0.00284
2018.00000    0.00605
2018.50000    0.00862
2019.00000    0.01053
2019.50000    0.01178
2020.00000    0.01237
2020.50000    0.01232
2021.00000    0.01168
2021.50000    0.01048
2022.00000    0.00878
2022.50000    0.00665
2023.00000    0.00412
2023.50000    0.00126
2024.00000   -0.00188
2024.50000   -0.00527
2025.00000   -0.00887
2025.50000   -0.01267
2026.00000   -0.01665
2026.50000   -0.02081
2027.00000   -0.02517
2027.50000   -0.02972
2028.00000   -0.03449
2028.50000   -0.03947
2029.00000   -0.04466
2029.50000   -0.05005
2030.00000   -0.05561
2030.50000   -0.06129
2031.00000   -0.06704
2031.50000   -0.07277
2032.00000   -0.07837
2032.50000   -0.08373
2033.00000   -0.08872
2033.50000   -0.09319
2034.00000   -0.09701
2034.50000   -0.10003
2035.00000   -0.10211
2035.50000   -0.10315
2036.00000   -0.10304
2036.50000   -0.10171
2037.00000   -0.09912
2037.50000   -0.09526
2038.00000   -0.09015
2038.50000   -0.08386
2039.00000   -0.07646
2039.50000   -0.06808
2040.00000   -0.05886
2040.50000   -0.04896
2041.00000   -0.03857
2041.50000   -0.02787
2042.00000   -0.01705
2042.50000   -0.00628
2043.00000    0.00426
2043.50000    0.01441
2044.00000    0.02404
2044.50000    0.03305
2045.00000    0.04134
2045.50000    0.04885
2046.00000    0.05556
2046.50000    0.06146
2047.00000    0.06656
2047.50000    0.07091
2048.00000    0.07456
2048.50000    0.07759
2049.00000    0.08008
2049.50000    0.08213
2050.00000    0.08383
2050.50000    0.08528
2051.00000    0.08657
2051.50000    0.08781
2052.00000    0.08907
2052.50000    0.09043
2053.00000    0.09195
2053.50000    0.09369
2054.00000    0.09569
2054.50000    0.09796
2055.00000    0.10052
2055.50000    0.10335
2056.00000    0.10642
2056.50000    0.10970
2057.00000    0.11312
2057.50000    0.11659
2058.00000    0.12003
2058.50000    0.12334
2059.00000    0.12639
2059.50000    0.12906
2060.00000    0.13124
2060.50000    0.13279
2061.00000    0.13360
2061.50000    0.13355
2062.00000    0.13256
2062.50000    0.13053
2063.00000    0.12740
2063.50000    0.12314
2064.00000    0.11772
2064.50000    0.11114
2065.00000    0.10343
2065.50000    0.09463
2066.00000    0.08482
2066.50000    0.07407
2067.00000    0.06248
2067.50000    0.05016
2068.00000    0.03723
2068.50000    0.02381
2069.00000    0.01002
2069.50000   -0.00401
2070.00000   -0.01815
2070.50000   -0.03228
2071.00000   -0.04629
2071.50000   -0.06005
2072.00000   -0.07347
2072.50000   -0.08642
2073.00000   -0.09880
2073.50000   -0.11052
2074.00000   -0.12147
2074.50000   -0.13156
2075.00000   -0.14069
2075.50000   -0.14879
2076.00000   -0.15578
2076.50000   -0.16157
2077.00000   -0.16611
2077.50000   -0.16935
2078.00000   -0.17125
2078.50000   -0.17180
2079.00000   -0.17098
2079.50000   -0.16882
2080.00000   -0.16535
2080.50000   -0.16061
2081.00000   -0.15468
2081.50000   -0.14765
2082.00000   -0.13962
2082.50000   -0.13072
2083.00000   -0.12106
2083.50000   -0.11081
2084.00000   -0.10009
2084.50000   -0.08907
2085.00000   -0.07790
2085.50000   -0.06674
2086.00000   -0.05572
2086.50000   -0.04500
2087.00000   -0.03471
2087.50000   -0.02496
2088.00000   -0.01588
2088.50000   -0.00754
2089.00000   -0.00002
2089.50000    0.00663
2090.00000    0.01238
2090.50000    0.01723
2091.00000    0.02118
2091.50000    0.02429
2092.00000    0.02663
2092.50000    0.02828
2093.00000    0.02935
2093.50000    0.02998
2094.00000    0.03029
2094.50000    0.03045
2095.00000    0.03059
2095.50000    0.03087
2096.00000    0.03142
2096.50000    0.03236
2097.00000    0.03379
2097.50000    0.03578
2098.00000    0.03838
2098.50000    0.04158
2099.00000    0.04535
2099.50000    0.04964
2100.00000    0.05435
2100.50000    0.05934
2101.00000    0.06447
2101.50000    0.06956
2102.00000    0.07443
2102.50000    0.07889
2103.00000    0.08277
2103.50000    0.08588
2104.00000    0.08809
2104.50000    0.08928
2105.00000    0.08934
2105.50000    0.08823
2106.00000    0.08593
2106.50000    0.08247
2107.00000    0.07790
2107.50000    0.07233
2108.00000    0.06588
2108.50000    0.05871
2109.00000    0.05100
2109.50000    0.04292
2110.00000    0.03470
2110.50000    0.02651
2111.00000    0.01855
2111.50000    0.01101
2112.00000    0.00404
2112.50000   -0.00219
2113.00000   -0.00758
2113.50000   -0.01201
2114.00000   -0.01543
2114.50000   -0.01777
2115.00000   -0.01901
2115.50000   -0.01917
2116.00000   -0.01825
2116.50000   -0.01631
2117.00000   -0.01341
2117.50000   -0.00963
2118.00000   -0.00507
2118.50000    0.00016
2119.00000    0.00593
2119.50000    0.01212
2120.00000    0.01857
2120.50000    0.02515
2121.00000    0.03170
2121.50000    0.03807
2122.00000    0.04412
2122.50000    0.04971
2123.00000    0.05472
2123.50000    0.05902
2124.00000    0.06253
2124.50000    0.06517
2125.00000    0.06689
2125.50000    0.06766
2126.00000    0.06747
2126.50000    0.06635
2127.00000    0.06434
2127.50000    0.06150
2128.00000    0.05791
2128.50000    0.05367
2129.00000    0.04886
2129.50000    0.04359
2130.00000    0.03795
2130.50000    0.03201
2131.00000    0.02583
2131.50000    0.01947
2132.00000    0.01293
2132.50000    0.00621
2133.00000   -0.00071
2133.50000   -0.00789
2134.00000   -0.01539
2134.50000   -0.02328
2135.00000   -0.03165
2135.50000   -0.04057
2136.00000   -0.05010
2136.50000   -0.06030
2137.00000   -0.07117
2137.50000   -0.08270
2138.00000   -0.09483
2138.50000   -0.10746
2139.00000   -0.12046
2139.50000   -0.13364
2140.00000   -0.14679
2140.50000   -0.15966
2141.00000   -0.17197
2141.50000   -0.18345
2142.00000   -0.19380
2142.50000   -0.20274
2143.00000   -0.21003
2143.50000   -0.21542
2144.00000   -0.21873
2144.50000   -0.21981
2145.00000   -0.21858
2145.50000   -0.21500
2146.00000   -0.20910
2146.50000   -0.20096
2147.00000   -0.19070
2147.50000   -0.17850
2148.00000   -0.16459
2148.50000   -0.14919
2149.00000   -0.13260
2149.50000   -0.11507
2150.00000   -0.09691
2150.50000   -0.07838
2151.00000   -0.05975
2151.50000   -0.04128
2152.00000   -0.02318
2152.50000   -0.00564
2153.00000    0.01115
2153.50000    0.02707
2154.00000    0.04200
2154.50000    0.05586
2155.00000    0.06858
2155.50000    0.08012
2156.00000    0.09046
2156.50000    0.09958
2157.00000    0.10747
2157.50000    0.11415
2158.00000    0.11962
2158.50000    0.12389
2159.00000    0.12700
2159.50000    0.12896
2160.00000    0.12982
2160.50000    0.12963
2161.00000    0.12844
2161.50000    0.12633
2162.00000    0.12340
2162.50000    0.11976
2163.00000    0.11553
2163.50000    0.11087
2164.00000    0.10592
2164.50000    0.10085
2165.00000    0.09584
2165.50000    0.09105
2166.00000    0.08664
2166.50000    0.08275
2167.00000    0.07950
2167.50000    0.07697
2168.00000    0.07522
2168.50000    0.07424
2169.00000    0.07400
2169.50000    0.07442
2170.00000    0.07539
2170.50000    0.07675
2171.00000    0.07831
2171.50000    0.07987
2172.00000    0.08122
2172.50000    0.08216
2173.00000    0.08248
2173.50000    0.08203
2174.00000    0.08068
2174.50000    0.07834
2175.00000    0.07500
2175.50000    0.07067
2176.00000    0.06545
2176.50000    0.05948
2177.00000    0.05293
2177.50000    0.04603
2178.00000    0.03902
2178.50000    0.03218
2179.00000    0.02574
2179.50000    0.01996
2180.00000    0.01505
2180.50000    0.01116
2181.00000    0.00841
2181.50000    0.00686
2182.00000    0.00649
2182.50000    0.00723
2183.00000    0.00894
2183.50000    0.01144
2184.00000    0.01449
2184.50000    0.01783
2185.00000    0.02116
2185.50000    0.02419
2186.00000    0.02662
2186.50000    0.02818
2187.00000    0.02863
2187.50000    0.02777
2188.00000    0.02544
2188.50000    0.02155
2189.00000    0.01605
2189.50000    0.00897
2190.00000    0.00039
2190.50000   -0.00955
2191.00000   -0.02068
2191.50000   -0.03275
2192.00000   -0.04550
2192.50000   -0.05863
2193.00000   -0.07183
2193.50000   -0.08476
2194.00000   -0.09710
2194.50000   -0.10853
2195.00000   -0.11875
2195.50000   -0.12750
2196.00000   -0.13455
2196.50000   -0.13971
2197.00000   -0.14284
2197.50000   -0.14386
2198.00000   -0.14276
2198.50000   -0.13956
2199.00000   -0.13438
2199.50000   -0.12736
2200.00000   -0.11871
2200.50000   -0.10868
2201.00000   -0.09754
2201.50000   -0.08563
2202.00000   -0.07324
2202.50000   -0.06071
2203.00000   -0.04835
2203.50000   -0.03643
2204.00000   -0.02522
2204.50000   -0.01490
2205.00000   -0.00563
2205.50000    0.00250
2206.00000    0.00947
2206.50000    0.01531
2207.00000    0.02010
2207.50000    0.02399
2208.00000    0.02717
2208.50000    0.02985
2209.00000    0.03228
2209.50000    0.03469
2210.00000    0.03735
2210.50000    0.04048
2211.00000    0.04429
2211.50000    0.04896
2212.00000    0.05461
2212.50000    0.06135
2213.00000    0.06920
2213.50000    0.07817
2214.00000    0.08819
2214.50000    0.09916
2215.00000    0.11096
2215.50000    0.12341
2216.00000    0.13632
2216.50000    0.14948
2217.00000    0.16268
2217.50000    0.17568
2218.00000    0.18827
2218.50000    0.20023
2219.00000    0.21138
2219.50000    0.22154
2220.00000    0.23054
2220.50000    0.23827
2221.00000    0.24461
2221.50000    0.24948
2222.00000    0.25283
2222.50000    0.25462
2223.00000    0.25485
2223.50000    0.25354
2224.00000    0.25070
2224.50000    0.24639
2225.00000    0.24067
2225.50000    0.23362
2226.00000    0.22531
2226.50000    0.21583
2227.00000    0.20527
2227.50000    0.19371
2228.00000    0.18126
2228.50000    0.16799
2229.00000    0.15399
2229.50000    0.13935
2230.00000    0.12413
2230.50000    0.10841
2231.00000    0.09227
2231.50000    0.07577
2232.00000    0.05899
2232.50000    0.04201
2233.00000    0.02489
2233.50000    0.00772
2234.00000   -0.00941
2234.50000   -0.02641
2235.00000   -0.04317
2235.50000   -0.05961
2236.00000   -0.07561
2236.50000   -0.09107
2237.00000   -0.10587
2237.50000   -0.11991
2238.00000   -0.13309
2238.50000   -0.14530
2239.00000   -0.15647
2239.50000   -0.16651
2240.00000   -0.17537
2240.50000   -0.18298
2241.00000   -0.18933
2241.50000   -0.19438
2242.00000   -0.19813
2242.50000   -0.20060
2243.00000   -0.20182
2243.50000   -0.20183
2244.00000   -0.20068
2244.50000   -0.19844
2245.00000   -0.19520
2245.50000   -0.19102
2246.00000   -0.18600
2246.50000   -0.18023
2247.00000   -0.17379
2247.50000   -0.16676
2248.00000   -0.15921
2248.50000   -0.15121
2249.00000   -0.14281
2249.50000   -0.13405
2250.00000   -0.12496
2250.50000   -0.11553
2251.00000   -0.10578
2251.50000   -0.09570
2252.00000   -0.08527
2252.50000   -0.07447
2253.00000   -0.06328
2253.50000   -0.05169
2254.00000   -0.03970
2254.50000   -0.02732
2255.00000   -0.01458
2255.50000   -0.00155
2256.00000    0.01172
2256.50000    0.02512
2257.00000    0.03853
2257.50000    0.05180
2258.00000    0.06480
2258.50000    0.07735
2259.00000    0.08930
2259.50000    0.10048
2260.00000    0.11074
2260.50000    0.11997
2261.00000    0.12805
2261.50000    0.13493
2262.00000    0.14056
2262.50000    0.14494
2263.00000    0.14811
2263.50000    0.15015
2264.00000    0.15115
2264.50000    0.15124
2265.00000    0.15057
2265.50000    0.14929
2266.00000    0.14754
2266.50000    0.14549
2267.00000    0.14327
2267.50000    0.14097
2268.00000    0.13871
2268.50000    0.13651
2269.00000    0.13442
2269.50000    0.13242
2270.00000    0.13047
2270.50000    0.12850
2271.00000    0.12642
2271.50000    0.12412
2272.00000    0.12149
2272.50000    0.11840
2273.00000    0.11474
2273.50000    0.11040
2274.00000    0.10528
2274.50000    0.09932
2275.00000    0.09248
2275.50000    0.08476
2276.00000    0.07618
2276.50000    0.06680
2277.00000    0.05674
2277.50000    0.04612
2278.00000    0.03512
2278.50000    0.02394
2279.00000    0.01281
2279.50000    0.00198
2280.00000   -0.00829
2280.50000   -0.01773
2281.00000   -0.02607
2281.50000   -0.03308
2282.00000   -0.03851
2282.50000   -0.04219
2283.00000   -0.04394
2283.50000   -0.04367
2284.00000   -0.04133
2284.50000   -0.03694
2285.00000   -0.03056
2285.50000   -0.02233
2286.00000   -0.01244
2286.50000   -0.00115
2287.00000    0.01124
2287.50000    0.02442
2288.00000    0.03802
2288.50000    0.05168
2289.00000    0.06502
2289.50000    0.07770
2290.00000    0.08939
2290.50000    0.09978
2291.00000    0.10863
2291.50000    0.11574
2292.00000    0.12094
2292.50000    0.12415
2293.00000    0.12529
2293.50000    0.12438
2294.00000    0.12143
2294.50000    0.11652
2295.00000    0.10972
2295.50000    0.10115
2296.00000    0.09093
2296.50000    0.07918
2297.00000    0.06604
2297.50000    0.05165
2298.00000    0.03615
2298.50000    0.01969
2299.00000    0.00243
2299.50000   -0.01545
2300.00000   -0.03377
2300.50000   -0.05232
2301.00000   -0.07088
2301.50000   -0.08919
2302.00000   -0.10699
2302.50000   -0.12400
2303.00000   -0.13994
2303.50000   -0.15453
2304.00000   -0.16749
2304.50000   -0.17858
2305.00000   -0.18758
2305.50000   -0.19432
2306.00000   -0.19869
2306.50000   -0.20061
2307.00000   -0.20009
2307.50000   -0.19719
2308.00000   -0.19205
2308.50000   -0.18486
2309.00000   -0.17585
2309.50000   -0.16531
2310.00000   -0.15354
2310.50000   -0.14086
2311.00000   -0.12762
2311.50000   -0.11414
2312.00000   -0.10071
2312.50000   -0.08761
2313.00000   -0.07508
2313.50000   -0.06331
2314.00000   -0.05245
2314.50000   -0.04260
2315.00000   -0.03382
2315.50000   -0.02614
2316.00000   -0.01952
2316.50000   -0.01393
2317.00000   -0.00930
2317.50000   -0.00554
2318.00000   -0.00256
2318.50000   -0.00026
2319.00000    0.00147
2319.50000    0.00271
2320.00000    0.00356
2320.50000    0.00409
2321.00000    0.00439
2321.50000    0.00452
2322.00000    0.00453
2322.50000    0.00448
2323.00000    0.00442
2323.50000    0.00438
2324.00000    0.00439
2324.50000    0.00450
2325.00000    0.00473
2325.50000    0.00509
2326.00000    0.00560
2326.50000    0.00627
2327.00000    0.00711
2327.50000    0.00812
2328.00000    0.00929
2328.50000    0.01060
2329.00000    0.01203
2329.50000    0.01355
2330.00000    0.01514
2330.50000    0.01676
2331.00000    0.01837
2331.50000    0.01993
2332.00000    0.02139
2332.50000    0.02273
2333.00000    0.02389
2333.50000    0.02484
2334.00000    0.02555
2334.50000    0.02599
2335.00000    0.02614
2335.50000    0.02598
2336.00000    0.02550
2336.50000    0.02472
2337.00000    0.02363
2337.50000    0.02226
2338.00000    0.02064
2338.50000    0.01881
2339.00000    0.01682
2339.50000    0.01473
2340.00000    0.01259
2340.50000    0.01047
2341.00000    0.00845
2341.50000    0.00660
2342.00000    0.00499
2342.50000    0.00370
2343.00000    0.00277
2343.50000    0.00228
2344.00000    0.00226
2344.50000    0.00276
2345.00000    0.00380
2345.50000    0.00540
2346.00000    0.00756
2346.50000    0.01027
2347.00000    0.01350
2347.50000    0.01721
2348.00000    0.02135
2348.50000    0.02586
2349.00000    0.03066
2349.50000    0.03565
2350.00000    0.04073
2350.50000    0.04581
2351.00000    0.05075
2351.50000    0.05543
2352.00000    0.05974
2352.50000    0.06355
2353.00000    0.06673
2353.50000    0.06919
2354.00000    0.07083
2354.50000    0.07157
2355.00000    0.07136
2355.50000    0.07018
2356.00000    0.06801
2356.50000    0.06491
2357.00000    0.06091
2357.50000    0.05610
2358.00000    0.05061
2358.50000    0.04455
2359.00000    0.03807
2359.50000    0.03133
2360.00000    0.02447
2360.50000    0.01765
2361.00000    0.01101
2361.50000    0.00466
2362.00000   -0.00129
2362.50000   -0.00679
2363.00000   -0.01178
2363.50000   -0.01626
2364.00000   -0.02023
2364.50000   -0.02372
2365.00000   -0.02679
2365.50000   -0.02952
2366.00000   -0.03196
2366.50000   -0.03420
2367.00000   -0.03630
2367.50000   -0.03834
2368.00000   -0.04035
2368.50000   -0.04238
2369.00000   -0.04443
2369.50000   -0.04650
2370.00000   -0.04857
2370.50000   -0.05059
2371.00000   -0.05252
2371.50000   -0.05427
2372.00000   -0.05577
2372.50000   -0.05694
2373.00000   -0.05768
2373.50000   -0.05792
2374.00000   -0.05757
2374.50000   -0.05655
2375.00000   -0.05480
2375.50000   -0.05226
2376.00000   -0.04890
2376.50000   -0.04469
2377.00000   -0.03963
2377.50000   -0.03376
2378.00000   -0.02712
2378.50000   -0.01978
2379.00000   -0.01186
2379.50000   -0.00349
2380.00000    0.00517
2380.50000    0.01393
2381.00000    0.02259
2381.50000    0.03093
2382.00000    0.03872
2382.50000    0.04573
2383.00000    0.05174
2383.50000    0.05655
2384.00000    0.05999
2384.50000    0.06191
2385.00000    0.06223
2385.50000    0.06089
2386.00000    0.05790
2386.50000    0.05331
2387.00000    0.04723
2387.50000    0.03983
2388.00000    0.03129
2388.50000    0.02187
2389.00000    0.01181
2389.50000    0.00141
2390.00000   -0.00904
2390.50000   -0.01926
2391.00000   -0.02898
2391.50000   -0.03792
2392.00000   -0.04587
2392.50000   -0.05261
2393.00000   -0.05798
2393.50000   -0.06184
2394.00000   -0.06411
2394.50000   -0.06471
2395.00000   -0.06362
2395.50000   -0.06085
2396.00000   -0.05644
2396.50000   -0.05045
2397.00000   -0.04297
2397.50000   -0.03412
2398.00000   -0.02405
2398.50000   -0.01291
2399.00000   -0.00088
2399.50000    0.01184
2400.00000    0.02504
2400.50000    0.03850
2401.00000    0.05200
2401.50000    0.06530
2402.00000    0.07819
2402.50000    0.09044
2403.00000    0.10185
2403.50000    0.11225
2404.00000    0.12148
2404.50000    0.12940
2405.00000    0.13591
2405.50000    0.14094
2406.00000    0.14446
2406.50000    0.14645
2407.00000    0.14692
2407.50000    0.14593
2408.00000    0.14352
2408.50000    0.13976
2409.00000    0.13475
2409.50000    0.12856
2410.00000    0.12130
2410.50000    0.11305
2411.00000    0.10392
2411.50000    0.09399
2412.00000    0.08337
2412.50000    0.07216
2413.00000    0.06046
2413.50000    0.04840
2414.00000    0.03609
2414.50000    0.02367
2415.00000    0.01128
2415.50000   -0.00094
2416.00000   -0.01284
2416.50000   -0.02429
2417.00000   -0.03516
2417.50000   -0.04532
2418.00000   -0.05470
2418.50000   -0.06322
2419.00000   -0.07086
2419.50000   -0.07763
2420.00000   -0.08355
2420.50000   -0.08872
2421.00000   -0.09324
2421.50000   -0.09723
2422.00000   -0.10085
2422.50000   -0.10426
2423.00000   -0.10759
2423.50000   -0.11098
2424.00000   -0.11456
2424.50000   -0.11838
2425.00000   -0.12250
2425.50000   -0.12690
2426.00000   -0.13152
2426.50000   -0.13628
2427.00000   -0.14102
2427.50000   -0.14559
2428.00000   -0.14978
2428.50000   -0.15338
2429.00000   -0.15618
2429.50000   -0.15799
2430.00000   -0.15862
2430.50000   -0.15794
2431.00000   -0.15585
2431.50000   -0.15229
2432.00000   -0.14727
2432.50000   -0.14083
2433.00000   -0.13311
2433.50000   -0.12425
2434.00000   -0.11445
2434.50000   -0.10396
2435.00000   -0.09305
2435.50000   -0.08199
2436.00000   -0.07108
2436.50000   -0.06059
2437.00000   -0.05080
2437.50000   -0.04194
2438.00000   -0.03424
2438.50000   -0.02785
2439.00000   -0.02291
2439.50000   -0.01948
2440.00000   -0.01758
2440.50000   -0.01720
2441.00000   -0.01824
2441.50000   -0.02058
2442.00000   -0.02402
2442.50000   -0.02837
2443.00000   -0.03335
2443.50000   -0.03869
2444.00000   -0.04410
2444.50000   -0.04927
2445.00000   -0.05390
2445.50000   -0.05770
2446.00000   -0.06038
2446.50000   -0.06172
2447.00000   -0.06151
2447.50000   -0.05959
2448.00000   -0.05585
2448.50000   -0.05024
2449.00000   -0.04276
2449.50000   -0.03347
2450.00000   -0.02248
2450.50000   -0.00996
2451.00000    0.00388
2451.50000    0.01880
2452.00000    0.03453
2452.50000    0.05075
2453.00000    0.06715
2453.50000    0.08341
2454.00000    0.09922
2454.50000    0.11426
2455.00000    0.12823
2455.50000    0.14088
2456.00000    0.15196
2456.50000    0.16125
2457.00000    0.16859
2457.50000    0.17382
2458.00000    0.17685
2458.50000    0.17762
2459.00000    0.17610
2459.50000    0.17232
2460.00000    0.16632
2460.50000    0.15821
2461.00000    0.14813
2461.50000    0.13625
2462.00000    0.12277
2462.50000    0.10794
2463.00000    0.09203
2463.50000    0.07534
2464.00000    0.05819
2464.50000    0.04091
2465.00000    0.02384
2465.50000    0.00731
2466.00000   -0.00832
2466.50000   -0.02276
2467.00000   -0.03570
2467.50000   -0.04689
2468.00000   -0.05609
2468.50000   -0.06313
2469.00000   -0.06788
2469.50000   -0.07025
2470.00000   -0.07022
2470.50000   -0.06782
2471.00000   -0.06312
2471.50000   -0.05625
2472.00000   -0.04737
2472.50000   -0.03668
2473.00000   -0.02443
2473.50000   -0.01088
2474.00000    0.00372
2474.50000    0.01906
2475.00000    0.03487
2475.50000    0.05087
2476.00000    0.06678
2476.50000    0.08235
2477.00000    0.09734
2477.50000    0.11154
2478.00000    0.12473
2478.50000    0.13676
2479.00000    0.14746
2479.50000    0.15672
2480.00000    0.16442
2480.50000    0.17047
2481.00000    0.17482
2481.50000    0.17742
2482.00000    0.17824
2482.50000    0.17728
2483.00000    0.17456
2483.50000    0.17012
2484.00000    0.16402
2484.50000    0.15634
2485.00000    0.14720
2485.50000    0.13674
2486.00000    0.12510
2486.50000    0.11247
2487.00000    0.09904
2487.50000    0.08504
2488.00000    0.07068
2488.50000    0.05619
2489.00000    0.04180
2489.50000    0.02772
2490.00000    0.01416
2490.50000    0.00128
2491.00000   -0.01078
2491.50000   -0.02191
2492.00000   -0.03204
2492.50000   -0.04118
2493.00000   -0.04933
2493.50000   -0.05658
2494.00000   -0.06303
2494.50000   -0.06881
2495.00000   -0.07408
2495.50000   -0.07900
2496.00000   -0.08375
2496.50000   -0.08847
2497.00000   -0.09328
2497.50000   -0.09829
2498.00000   -0.10354
2498.50000   -0.10904
2499.00000   -0.11473
2499.50000   -0.12054
2500.00000   -0.12632
2500.50000   -0.13189
2501.00000   -0.13705
2501.50000   -0.14158
2502.00000   -0.14526
2502.50000   -0.14788
2503.00000   -0.14925
2503.50000   -0.14922
2504.00000   -0.14768
2504.50000   -0.14457
2505.00000   -0.13988
2505.50000   -0.13367
2506.00000   -0.12604
2506.50000   -0.11713
2507.00000   -0.10715
2507.50000   -0.09629
2508.00000   -0.08479
2508.50000   -0.07289
2509.00000   -0.06081
2509.50000   -0.04877
2510.00000   -0.03696
2510.50000   -0.02554
2511.00000   -0.01464
2511.50000   -0.00435
2512.00000    0.00525
2512.50000    0.01413
2513.00000    0.02227
2513.50000    0.02965
2514.00000    0.03628
2514.50000    0.04215
2515.00000    0.04727
2515.50000    0.05162
2516.00000    0.05517
2516.50000    0.05790
2517.00000    0.05977
2517.50000    0.06072
2518.00000    0.06072
2518.50000    0.05972
2519.00000    0.05770
2519.50000    0.05464
2520.00000    0.05056
2520.50000    0.04550
2521.00000    0.03953
2521.50000    0.03275
2522.00000    0.02528
2522.50000    0.01730
2523.00000    0.00897
2523.50000    0.00049
2524.00000   -0.00793
2524.50000   -0.01608
2525.00000   -0.02378
2525.50000   -0.03082
2526.00000   -0.03703
2526.50000   -0.04229
2527.00000   -0.04647
2527.50000   -0.04949
2528.00000   -0.05132
2528.50000   -0.05194
2529.00000   -0.05139
2529.50000   -0.04973
2530.00000   -0.04704
2530.50000   -0.04346
2531.00000   -0.03911
2531.50000   -0.03415
2532.00000   -0.02874
2532.50000   -0.02306
2533.00000   -0.01726
2533.50000   -0.01149
2534.00000   -0.00590
2534.50000   -0.00060
2535.00000    0.00431
2535.50000    0.00876
2536.00000    0.01272
2536.50000    0.01617
2537.00000    0.01914
2537.50000    0.02168
2538.00000    0.02386
2538.50000    0.02578
2539.00000    0.02754
2539.50000    0.02927
2540.00000    0.03108
2540.50000    0.03309
2541.00000    0.03541
2541.50000    0.03810
2542.00000    0.04124
2542.50000    0.04485
2543.00000    0.04894
2543.50000    0.05347
2544.00000    0.05838
2544.50000    0.06358
2545.00000    0.06896
2545.50000    0.07436
2546.00000    0.07964
2546.50000    0.08463
2547.00000    0.08917
2547.50000    0.09310
2548.00000    0.09627
2548.50000    0.09854
2549.00000    0.09980
2549.50000    0.09996
2550.00000    0.09895
2550.50000    0.09674
2551.00000    0.09330
2551.50000    0.08865
2552.00000    0.08282
2552.50000    0.07586
2553.00000    0.06785
2553.50000    0.05888
2554.00000    0.04905
2554.50000    0.03849
2555.00000    0.02730
2555.50000    0.01563
2556.00000    0.00363
2556.50000   -0.00858
2557.00000   -0.02082
2557.50000   -0.03297
2558.00000   -0.04486
2558.50000   -0.05636
2559.00000   -0.06733
2559.50000   -0.07764
2560.00000   -0.08718
2560.50000   -0.09586
2561.00000   -0.10359
2561.50000   -0.11033
2562.00000   -0.11604
2562.50000   -0.12072
2563.00000   -0.12439
2563.50000   -0.12708
2564.00000   -0.12887
2564.50000   -0.12983
2565.00000   -0.13006
2565.50000   -0.12967
2566.00000   -0.12875
2566.50000   -0.12743
2567.00000   -0.12580
2567.50000   -0.12394
2568.00000   -0.12194
2568.50000   -0.11985
2569.00000   -0.11770
2569.50000   -0.11551
2570.00000   -0.11328
2570.50000   -0.11098
2571.00000   -0.10857
2571.50000   -0.10600
2572.00000   -0.10320
2572.50000   -0.10010
2573.00000   -0.09662
2573.50000   -0.09271
2574.00000   -0.08828
2574.50000   -0.08328
2575.00000   -0.07765
2575.50000   -0.07135
2576.00000   -0.06435
2576.50000   -0.05665
2577.00000   -0.04822
2577.50000   -0.03910
2578.00000   -0.02930
2578.50000   -0.01887
2579.00000   -0.00786
2579.50000    0.00364
2580.00000    0.01554
2580.50000    0.02774
2581.00000    0.04011
2581.50000    0.05249
2582.00000    0.06473
2582.50000    0.07665
2583.00000    0.08807
2583.50000    0.09880
2584.00000    0.10864
2584.50000    0.11741
2585.00000    0.12492
2585.50000    0.13103
2586.00000    0.13559
2586.50000    0.13850
2587.00000    0.13970
2587.50000    0.13917
2588.00000    0.13692
2588.50000    0.13304
2589.00000    0.12762
2589.50000    0.12084
2590.00000    0.11288
2590.50000    0.10398
2591.00000    0.09440
2591.50000    0.08439
2592.00000    0.07423
2592.50000    0.06420
2593.00000    0.05454
2593.50000    0.04548
2594.00000    0.03721
2594.50000    0.02989
2595.00000    0.02363
2595.50000    0.01849
2596.00000    0.01447
2596.50000    0.01155
2597.00000    0.00965
2597.50000    0.00865
2598.00000    0.00840
2598.50000    0.00873
2599.00000    0.00946
2599.50000    0.01041
2600.00000    0.01138
2600.50000    0.01221
2601.00000    0.01274
2601.50000    0.01287
2602.00000    0.01250
2602.50000    0.01159
2603.00000    0.01013
2603.50000    0.00816
2604.00000    0.00574
2604.50000    0.00298
2605.00000    0.00000
2605.50000   -0.00303
2606.00000   -0.00596
2606.50000   -0.00861
2607.00000   -0.01082
2607.50000   -0.01244
2608.00000   -0.01334
2608.50000   -0.01342
2609.00000   -0.01262
2609.50000   -0.01090
2610.00000   -0.00830
2610.50000   -0.00487
2611.00000   -0.00072
2611.50000    0.00401
2612.00000    0.00913
2612.50000    0.01446
2613.00000    0.01976
2613.50000    0.02480
2614.00000    0.02935
2614.50000    0.03319
2615.00000    0.03611
2615.50000    0.03793
2616.00000    0.03851
2616.50000    0.03775
2617.00000    0.03558
2617.50000    0.03198
2618.00000    0.02700
2618.50000    0.02069
2619.00000    0.01318
2619.50000    0.00461
2620.00000   -0.00483
2620.50000   -0.01494
2621.00000   -0.02549
2621.50000   -0.03626
2622.00000   -0.04700
2622.50000   -0.05750
2623.00000   -0.06753
2623.50000   -0.07691
2624.00000   -0.08545
2624.50000   -0.09300
2625.00000   -0.09944
2625.50000   -0.10468
2626.00000   -0.10864
2626.50000   -0.11130
2627.00000   -0.11262
2627.50000   -0.11262
2628.00000   -0.11130
2628.50000   -0.10868
2629.00000   -0.10481
2629.50000   -0.09972
2630.00000   -0.09342
2630.50000   -0.08595
2631.00000   -0.07731
2631.50000   -0.06751
2632.00000   -0.05654
2632.50000   -0.04439
2633.00000   -0.03104
2633.50000   -0.01645
2634.00000   -0.00061
2634.50000    0.01651
2635.00000    0.03494
2635.50000    0.05467
2636.00000    0.07571
2636.50000    0.09805
2637.00000    0.12166
2637.50000    0.14651
2638.00000    0.17255
2638.50000    0.19975
2639.00000    0.22807
2639.50000    0.25746
2640.00000    0.28791
2640.50000    0.31941
2641.00000    0.35199
2641.50000    0.38568
2642.00000    0.42057
2642.50000    0.45674
2643.00000    0.49431
2643.50000    0.53344
2644.00000    0.57428
2644.50000    0.61699
2645.00000    0.66175
2645.50000    0.70871
2646.00000    0.75802
2646.50000    0.80981
2647.00000    0.86418
2647.50000    0.92119
2648.00000    0.98088
2648.50000    1.04325
2649.00000    1.10827
2649.50000    1.17590
2650.00000    1.24606
2650.50000    1.31866
2651.00000    1.39362
2651.50000    1.47085
2652.00000    1.55030
2652.50000    1.63191
2653.00000    1.71569
2653.50000    1.80166
2654.00000    1.88991
2654.50000    1.98055
2655.00000    2.07375
2655.50000    2.16974
2656.00000    2.26876
2656.50000    2.37110
2657.00000    2.47708
2657.50000    2.58703
2658.00000    2.70129
2658.50000    2.82018
2659.00000    2.94400
2659.50000    3.07303
2660.00000    3.20751
2660.50000    3.34762
2661.00000    3.49347
2661.50000    3.64512
2662.00000    3.80255
2662.50000    3.96568
2663.00000    4.13434
2663.50000    4.30832
2664.00000    4.48731
2664.50000    4.67098
2665.00000    4.85892
2665.50000    5.05072
2666.00000    5.24590
2666.50000    5.44396
2667.00000    5.64442
2667.50000    5.84675
2668.00000    6.05044
2668.50000    6.25497
2669.00000    6.45981
2669.50000    6.66445
2670.00000    6.86836
2670.50000    7.07103
2671.00000    7.27190
2671.50000    7.47044
2672.00000    7.66607
2672.50000    7.85821
2673.00000    8.04626
2673.50000    8.22959
2674.00000    8.40754
2674.50000    8.57946
2675.00000    8.74465
2675.50000    8.90243
2676.00000    9.05212
2676.50000    9.19303
2677.00000    9.32449
2677.50000    9.44587
2678.00000    9.55655
2678.50000    9.65597
2679.00000    9.74360
2679.50000    9.81898
2680.00000    9.88169
2680.50000    9.93140
2681.00000    9.96781
2681.50000    9.99073
2682.00000   10.00000
2682.50000    9.99557
2683.00000    9.97743
2683.50000    9.94568
2684.00000    9.90048
2684.50000    9.84204
2685.00000    9.77068
2685.50000    9.68677
2686.00000    9.59074
2686.50000    9.48309
2687.00000    9.36439
2687.50000    9.23523
2688.00000    9.09626
2688.50000    8.94818
2689.00000    8.79168
2689.50000    8.62752
2690.00000    8.45641
2690.50000    8.27912
2691.00000    8.09637
2691.50000    7.90889
2692.00000    7.71740
2692.50000    7.52258
2693.00000    7.32510
2693.50000    7.12559
2694.00000    6.92466
2694.50000    6.72289
2695.00000    6.52081
2695.50000    6.31895
2696.00000    6.11777
2696.50000    5.91774
2697.00000    5.71925
2697.50000    5.52269
2698.00000    5.32840
2698.50000    5.13669
2699.00000    4.94784
2699.50000    4.76209
2700.00000    4.57965
2700.50000    4.40071
2701.00000    4.22543
2701.50000    4.05395
2702.00000    3.88642
2702.50000    3.72294
2703.00000    3.56363
2703.50000    3.40861
2704.00000    3.25799
2704.50000    3.11189
2705.00000    2.97044
2705.50000    2.83375
2706.00000    2.70195
2706.50000    2.57515
2707.00000    2.45345
2707.50000    2.33693
2708.00000    2.22565
2708.50000    2.11962
2709.00000    2.01883
2709.50000    1.92320
2710.00000    1.83264
2710.50000    1.74698
2711.00000    1.66602
2711.50000    1.58952
2712.00000    1.51719
2712.50000    1.44872
2713.00000    1.38379
2713.50000    1.32205
2714.00000    1.26315
2714.50000    1.20674
2715.00000    1.15251
2715.50000    1.10013
2716.00000    1.04932
2716.50000    0.99983
2717.00000    0.95142
2717.50000    0.90391
2718.00000    0.85714
2718.50000    0.81098
2719.00000    0.76533
2719.50000    0.72015
2720.00000    0.67541
2720.50000    0.63110
2721.00000    0.58726
2721.50000    0.54397
2722.00000    0.50131
2722.50000    0.45942
2723.00000    0.41844
2723.50000    0.37855
2724.00000    0.33996
2724.50000    0.30288
2725.00000    0.26755
2725.50000    0.23421
2726.00000    0.20310
2726.50000    0.17446
2727.00000    0.14849
2727.50000    0.12538
2728.00000    0.10528
2728.50000    0.08830
2729.00000    0.07449
2729.50000    0.06384
2730.00000    0.05628
2730.50000    0.05168
2731.00000    0.04984
2731.50000    0.05052
2732.00000    0.05339
2732.50000    0.05809
2733.00000    0.06423
2733.50000    0.07138
2734.00000    0.07910
2734.50000    0.08694
2735.00000    0.09448
2735.50000    0.10129
2736.00000    0.10701
2736.50000    0.11131
2737.00000    0.11393
2737.50000    0.11466
2738.00000    0.11335
2738.50000    0.10995
2739.00000    0.10444
2739.50000    0.09691
2740.00000    0.08748
2740.50000    0.07633
2741.00000    0.06369
2741.50000    0.04983
2742.00000    0.03503
2742.50000    0.01959
2743.00000    0.00382
2743.50000   -0.01200
2744.00000   -0.02757
2744.50000   -0.04265
2745.00000   -0.05699
2745.50000   -0.07041
2746.00000   -0.08274
2746.50000   -0.09384
2747.00000   -0.10360
2747.50000   -0.11194
2748.00000   -0.11880
2748.50000   -0.12413
2749.00000   -0.12792
2749.50000   -0.13013
2750.00000   -0.13074
2750.50000   -0.12974
2751.00000   -0.12710
2751.50000   -0.12282
2752.00000   -0.11688
2752.50000   -0.10926
2753.00000   -0.09995
2753.50000   -0.08896
2754.00000   -0.07630
2754.50000   -0.06200
2755.00000   -0.04613
2755.50000   -0.02875
2756.00000   -0.00998
2756.50000    0.01003
2757.00000    0.03113
2757.50000    0.05309
2758.00000    0.07570
2758.50000    0.09868
2759.00000    0.12175
2759.50000    0.14461
2760.00000    0.16693
2760.50000    0.18839
2761.00000    0.20867
2761.50000    0.22745
2762.00000    0.24444
2762.50000    0.25935
2763.00000    0.27196
2763.50000    0.28208
2764.00000    0.28954
2764.50000    0.29425
2765.00000    0.29616
2765.50000    0.29529
2766.00000    0.29171
2766.50000    0.28552
2767.00000    0.27691
2767.50000    0.26608
2768.00000    0.25327
2768.50000    0.23877
2769.00000    0.22284
2769.50000    0.20580
2770.00000    0.18792
2770.50000    0.16950
2771.00000    0.15077
2771.50000    0.13198
2772.00000    0.11333
2772.50000    0.09497
2773.00000    0.07704
2773.50000    0.05961
2774.00000    0.04277
2774.50000    0.02653
2775.00000    0.01092
2775.50000   -0.00408
2776.00000   -0.01848
2776.50000   -0.03229
2777.00000   -0.04552
2777.50000   -0.05818
2778.00000   -0.07026
2778.50000   -0.08174
2779.00000   -0.09257
2779.50000   -0.10270
2780.00000   -0.11207
2780.50000   -0.12060
2781.00000   -0.12820
2781.50000   -0.13481
2782.00000   -0.14032
2782.50000   -0.14468
2783.00000   -0.14782
2783.50000   -0.14970
2784.00000   -0.15030
2784.50000   -0.14961
2785.00000   -0.14766
2785.50000   -0.14449
2786.00000   -0.14017
2786.50000   -0.13477
2787.00000   -0.12840
2787.50000   -0.12117
2788.00000   -0.11320
2788.50000   -0.10461
2789.00000   -0.09552
2789.50000   -0.08605
2790.00000   -0.07631
2790.50000   -0.06640
2791.00000   -0.05640
2791.50000   -0.04638
2792.00000   -0.03639
2792.50000   -0.02646
2793.00000   -0.01661
2793.50000   -0.00685
2794.00000    0.00282
2794.50000    0.01240
2795.00000    0.02189
2795.50000    0.03128
2796.00000    0.04057
2796.50000    0.04970
2797.00000    0.05863
2797.50000    0.06727
2798.00000    0.07552
2798.50000    0.08324
2799.00000    0.09029
2799.50000    0.09649
2800.00000    0.10165
2800.50000    0.10559
2801.00000    0.10812
2801.50000    0.10906
2802.00000    0.10827
2802.50000    0.10564
2803.00000    0.10107
2803.50000    0.09457
2804.00000    0.08615
2804.50000    0.07590
2805.00000    0.06398
2805.50000    0.05059
2806.00000    0.03599
2806.50000    0.02046
2807.00000    0.00434
2807.50000   -0.01202
2808.00000   -0.02829
2808.50000   -0.04412
2809.00000   -0.05919
2809.50000   -0.07322
2810.00000   -0.08596
2810.50000   -0.09721
2811.00000   -0.10683
2811.50000   -0.11473
2812.00000   -0.12086
2812.50000   -0.12525
2813.00000   -0.12793
2813.50000   -0.12898
2814.00000   -0.12849
2814.50000   -0.12659
2815.00000   -0.12337
2815.50000   -0.11896
2816.00000   -0.11345
2816.50000   -0.10693
2817.00000   -0.09946
2817.50000   -0.09110
2818.00000   -0.08190
2818.50000   -0.07190
2819.00000   -0.06113
2819.50000   -0.04963
2820.00000   -0.03746
2820.50000   -0.02468
2821.00000   -0.01139
2821.50000    0.00229
2822.00000    0.01623
2822.50000    0.03027
2823.00000    0.04422
2823.50000    0.05791
2824.00000    0.07113
2824.50000    0.08368
2825.00000    0.09539
2825.50000    0.10609
2826.00000    0.11565
2826.50000    0.12395
2827.00000    0.13093
2827.50000    0.13656
2828.00000    0.14084
2828.50000    0.14380
2829.00000    0.14553
2829.50000    0.14612
2830.00000    0.14567
2830.50000    0.14431
2831.00000    0.14217
2831.50000    0.13938
2832.00000    0.13602
2832.50000    0.13222
2833.00000    0.12802
2833.50000    0.12350
2834.00000    0.11867
2834.50000    0.11353
2835.00000    0.10809
2835.50000    0.10229
2836.00000    0.09612
2836.50000    0.08951
2837.00000    0.08242
2837.50000    0.07482
2838.00000    0.06669
2838.50000    0.05802
2839.00000    0.04882
2839.50000    0.03915
2840.00000    0.02907
2840.50000    0.01869
2841.00000    0.00812
2841.50000   -0.00249
2842.00000   -0.01297
2842.50000   -0.02316
2843.00000   -0.03288
2843.50000   -0.04197
2844.00000   -0.05027
2844.50000   -0.05765
2845.00000   -0.06402
2845.50000   -0.06931
2846.00000   -0.07350
2846.50000   -0.07662
2847.00000   -0.07873
2847.50000   -0.07994
2848.00000   -0.08038
2848.50000   -0.08023
2849.00000   -0.07966
2849.50000   -0.07888
2850.00000   -0.07806
2850.50000   -0.07738
2851.00000   -0.07699
2851.50000   -0.07701
2852.00000   -0.07750
2852.50000   -0.07849
2853.00000   -0.07997
2853.50000   -0.08186
2854.00000   -0.08404
2854.50000   -0.08638
2855.00000   -0.08869
2855.50000   -0.09076
2856.00000   -0.09238
2856.50000   -0.09333
2857.00000   -0.09342
2857.50000   -0.09245
2858.00000   -0.09027
2858.50000   -0.08676
2859.00000   -0.08183
2859.50000   -0.07543
2860.00000   -0.06757
2860.50000   -0.05829
2861.00000   -0.04765
2861.50000   -0.03579
2862.00000   -0.02283
2862.50000   -0.00896
2863.00000    0.00564
2863.50000    0.02075
2864.00000    0.03616
2864.50000    0.05162
2865.00000    0.06691
2865.50000    0.08180
2866.00000    0.09604
2866.50000    0.10943
2867.00000    0.12174
2867.50000    0.13279
2868.00000    0.14239
2868.50000    0.15039
2869.00000    0.15667
2869.50000    0.16112
2870.00000    0.16369
2870.50000    0.16434
2871.00000    0.16309
2871.50000    0.15998
2872.00000    0.15509
2872.50000    0.14854
2873.00000    0.14047
2873.50000    0.13104
2874.00000    0.12043
2874.50000    0.10883
2875.00000    0.09645
2875.50000    0.08348
2876.00000    0.07011
2876.50000    0.05651
2877.00000    0.04284
2877.50000    0.02925
2878.00000    0.01585
2878.50000    0.00274
2879.00000   -0.00999
2879.50000   -0.02227
2880.00000   -0.03405
2880.50000   -0.04528
2881.00000   -0.05592
2881.50000   -0.06595
2882.00000   -0.07532
2882.50000   -0.08400
2883.00000   -0.09196
2883.50000   -0.09915
2884.00000   -0.10554
2884.50000   -0.11108
2885.00000   -0.11574
2885.50000   -0.11949
2886.00000   -0.12227
2886.50000   -0.12408
2887.00000   -0.12487
2887.50000   -0.12462
2888.00000   -0.12333
2888.50000   -0.12096
2889.00000   -0.11751
2889.50000   -0.11297
2890.00000   -0.10733
2890.50000   -0.10058
2891.00000   -0.09273
2891.50000   -0.08376
2892.00000   -0.07370
2892.50000   -0.06256
2893.00000   -0.05036
2893.50000   -0.03713
2894.00000   -0.02294
2894.50000   -0.00784
2895.00000    0.00809
2895.50000    0.02474
2896.00000    0.04204
2896.50000    0.05985
2897.00000    0.07808
2897.50000    0.09662
2898.00000    0.11537
2898.50000    0.13425
2899.00000    0.15320
2899.50000    0.17216
