1200.50000    0.06716
1201.00000    0.04022
1201.50000    0.01354
1202.00000   -0.01260
1202.50000   -0.03789
1203.00000   -0.06194
1203.50000   -0.08435
1204.00000   -0.10470
1204.50000   -0.12260
1205.00000   -0.13768
1205.50000   -0.14961
1206.00000   -0.15817
1206.50000   -0.16317
1207.00000   -0.16454
1207.50000   -0.16232
1208.00000   -0.15661
1208.50000   -0.14764
1209.00000   -0.13570
1209.50000   -0.12117
1210.00000   -0.10447
1210.50000   -0.08608
1211.00000   -0.06649
1211.50000   -0.04618
1212.00000   -0.02563
1212.50000   -0.00527
1213.00000    0.01453
1213.50000    0.03345
1214.00000    0.05125
1214.50000    0.06777
1215.00000    0.08294
1215.50000    0.09674
1216.00000    0.10925
1216.50000    0.12059
1217.00000    0.13094
1217.50000    0.14048
1218.00000    0.14946
1218.50000    0.15807
1219.00000    0.16653
1219.50000    0.17499
1220.00000    0.18358
1220.50000    0.19235
1221.00000    0.20132
1221.50000    0.21041
1222.00000    0.21950
1222.50000    0.22839
1223.00000    0.23686
1223.50000    0.24459
1224.00000    0.25129
1224.50000    0.25661
1225.00000    0.26020
1225.50000    0.26173
1226.00000    0.26091
1226.50000    0.25747
1227.00000    0.25121
1227.50000    0.24197
1228.00000    0.22968
1228.50000    0.21435
1229.00000    0.19605
1229.50000    0.17494
1230.00000    0.15123
1230.50000    0.12521
1231.00000    0.09722
1231.50000    0.06765
1232.00000    0.03691
1232.50000    0.00547
1233.00000   -0.02625
1233.50000   -0.05778
1234.00000   -0.08869
1234.50000   -0.11857
1235.00000   -0.14705
1235.50000   -0.17380
1236.00000   -0.19853
1236.50000   -0.22101
1237.00000   -0.24106
1237.50000   -0.25856
1238.00000   -0.27343
1238.50000   -0.28564
1239.00000   -0.29522
1239.50000   -0.30223
1240.00000   -0.30675
1240.50000   -0.30892
1241.00000   -0.30887
1241.50000   -0.30677
1242.00000   -0.30278
1242.50000   -0.29710
1243.00000   -0.28989
1243.50000   -0.28131
1244.00000   -0.27154
1244.50000   -0.26073
1245.00000   -0.24899
1245.50000   -0.23644
1246.00000   -0.22319
1246.50000   -0.20930
1247.00000   -0.19483
1247.50000   -0.17981
1248.00000   -0.16424
1248.50000   -0.14812
1249.00000   -0.13142
1249.50000   -0.11408
1250.00000   -0.09605
1250.50000   -0.07724
1251.00000   -0.05755
1251.50000   -0.03687
1252.00000   -0.01510
1252.50000    0.00788
1253.00000    0.03221
1253.50000    0.05798
1254.00000    0.08531
1254.50000    0.11430
1255.00000    0.14502
1255.50000    0.17753
1256.00000    0.21186
1256.50000    0.24800
1257.00000    0.28590
1257.50000    0.32549
1258.00000    0.36665
1258.50000    0.40919
1259.00000    0.45290
1259.50000    0.49752
1260.00000    0.54274
1260.50000    0.58822
1261.00000    0.63357
1261.50000    0.67839
1262.00000    0.72225
1262.50000    0.76471
1263.00000    0.80531
1263.50000    0.84363
1264.00000    0.87924
1264.50000    0.91172
1265.00000    0.94070
1265.50000    0.96586
1266.00000    0.98688
1266.50000    1.00353
1267.00000    1.01562
1267.50000    1.02300
1268.00000    1.02560
1268.50000    1.02341
1269.00000    1.01643
1269.50000    1.00477
1270.00000    0.98856
1270.50000    0.96795
1271.00000    0.94319
1271.50000    0.91450
1272.00000    0.88218
1272.50000    0.84653
1273.00000    0.80788
1273.50000    0.76660
1274.00000    0.72305
1274.50000    0.67762
1275.00000    0.63071
1275.50000    0.58274
1276.00000    0.53413
1276.50000    0.48531
1277.00000    0.43672
1277.50000    0.38879
1278.00000    0.34195
1278.50000    0.29664
1279.00000    0.25326
1279.50000    0.21220
1280.00000    0.17382
1280.50000    0.13847
1281.00000    0.10642
1281.50000    0.07793
1282.00000    0.05318
1282.50000    0.03232
1283.00000    0.01541
1283.50000    0.00246
1284.00000   -0.00659
1284.50000   -0.01186
1285.00000   -0.01357
1285.50000   -0.01196
1286.00000   -0.00737
1286.50000   -0.00018
1287.00000    0.00921
1287.50000    0.02032
1288.00000    0.03268
1288.50000    0.04579
1289.00000    0.05915
1289.50000    0.07227
1290.00000    0.08469
1290.50000    0.09594
1291.00000    0.10564
1291.50000    0.11344
1292.00000    0.11903
1292.50000    0.12219
1293.00000    0.12276
1293.50000    0.12065
1294.00000    0.11585
1294.50000    0.10843
1295.00000    0.09852
1295.50000    0.08632
1296.00000    0.07211
1296.50000    0.05619
1297.00000    0.03894
1297.50000    0.02077
1298.00000    0.00210
1298.50000   -0.01663
1299.00000   -0.03497
1299.50000   -0.05248
1300.00000   -0.06875
1300.50000   -0.08340
1301.00000   -0.09610
1301.50000   -0.10656
1302.00000   -0.11458
1302.50000   -0.11999
1303.00000   -0.12272
1303.50000   -0.12278
1304.00000   -0.12025
1304.50000   -0.11528
1305.00000   -0.10808
1305.50000   -0.09895
1306.00000   -0.08822
1306.50000   -0.07628
1307.00000   -0.06354
1307.50000   -0.05047
1308.00000   -0.03750
1308.50000   -0.02512
1309.00000   -0.01377
1309.50000   -0.00388
1310.00000    0.00416
1310.50000    0.00998
1311.00000    0.01329
1311.50000    0.01384
1312.00000    0.01145
1312.50000    0.00600
1313.00000   -0.00253
1313.50000   -0.01411
1314.00000   -0.02863
1314.50000   -0.04590
1315.00000   -0.06567
1315.50000   -0.08761
1316.00000   -0.11132
1316.50000   -0.13635
1317.00000   -0.16220
1317.50000   -0.18832
1318.00000   -0.21411
1318.50000   -0.23896
1319.00000   -0.26224
1319.50000   -0.28333
1320.00000   -0.30160
1320.50000   -0.31644
1321.00000   -0.32732
1321.50000   -0.33371
1322.00000   -0.33520
1322.50000   -0.33142
1323.00000   -0.32211
1323.50000   -0.30714
1324.00000   -0.28645
1324.50000   -0.26013
1325.00000   -0.22838
1325.50000   -0.19153
1326.00000   -0.15004
1326.50000   -0.10448
1327.00000   -0.05553
1327.50000   -0.00395
1328.00000    0.04942
1328.50000    0.10366
1329.00000    0.15784
1329.50000    0.21101
1330.00000    0.26224
1330.50000    0.31063
1331.00000    0.35535
1331.50000    0.39565
1332.00000    0.43087
1332.50000    0.46051
1333.00000    0.48415
1333.50000    0.50156
1334.00000    0.51262
1334.50000    0.51737
1335.00000    0.51602
1335.50000    0.50886
1336.00000    0.49634
1336.50000    0.47902
1337.00000    0.45752
1337.50000    0.43254
1338.00000    0.40482
1338.50000    0.37513
1339.00000    0.34422
1339.50000    0.31281
1340.00000    0.28158
1340.50000    0.25116
1341.00000    0.22208
1341.50000    0.19481
1342.00000    0.16972
1342.50000    0.14707
1343.00000    0.12706
1343.50000    0.10976
1344.00000    0.09521
1344.50000    0.08333
1345.00000    0.07402
1345.50000    0.06711
1346.00000    0.06240
1346.50000    0.05968
1347.00000    0.05871
1347.50000    0.05927
1348.00000    0.06115
1348.50000    0.06414
1349.00000    0.06805
1349.50000    0.07273
1350.00000    0.07802
1350.50000    0.08382
1351.00000    0.08999
1351.50000    0.09645
1352.00000    0.10309
1352.50000    0.10982
1353.00000    0.11654
1353.50000    0.12314
1354.00000    0.12950
1354.50000    0.13548
1355.00000    0.14094
1355.50000    0.14573
1356.00000    0.14966
1356.50000    0.15259
1357.00000    0.15435
1357.50000    0.15477
1358.00000    0.15373
1358.50000    0.15111
1359.00000    0.14682
1359.50000    0.14082
1360.00000    0.13307
1360.50000    0.12361
1361.00000    0.11248
1361.50000    0.09979
1362.00000    0.08566
1362.50000    0.07025
1363.00000    0.05374
1363.50000    0.03635
1364.00000    0.01827
1364.50000   -0.00028
1365.00000   -0.01907
1365.50000   -0.03790
1366.00000   -0.05658
1366.50000   -0.07494
1367.00000   -0.09283
1367.50000   -0.11011
1368.00000   -0.12669
1368.50000   -0.14246
1369.00000   -0.15738
1369.50000   -0.17140
1370.00000   -0.18448
1370.50000   -0.19660
1371.00000   -0.20775
1371.50000   -0.21792
1372.00000   -0.22709
1372.50000   -0.23525
1373.00000   -0.24237
1373.50000   -0.24842
1374.00000   -0.25337
1374.50000   -0.25714
1375.00000   -0.25969
1375.50000   -0.26094
1376.00000   -0.26080
1376.50000   -0.25918
1377.00000   -0.25600
1377.50000   -0.25114
1378.00000   -0.24452
1378.50000   -0.23605
1379.00000   -0.22563
1379.50000   -0.21320
1380.00000   -0.19870
1380.50000   -0.18209
1381.00000   -0.16336
1381.50000   -0.14253
1382.00000   -0.11964
1382.50000   -0.09479
1383.00000   -0.06810
1383.50000   -0.03974
1384.00000   -0.00995
1384.50000    0.02102
1385.00000    0.05284
1385.50000    0.08515
1386.00000    0.11756
1386.50000    0.14963
1387.00000    0.18088
1387.50000    0.21084
1388.00000    0.23900
1388.50000    0.26489
1389.00000    0.28802
1389.50000    0.30794
1390.00000    0.32424
1390.50000    0.33657
1391.00000    0.34465
1391.50000    0.34826
1392.00000    0.34728
1392.50000    0.34169
1393.00000    0.33154
1393.50000    0.31701
1394.00000    0.29836
1394.50000    0.27593
1395.00000    0.25016
1395.50000    0.22155
1396.00000    0.19065
1396.50000    0.15806
1397.00000    0.12441
1397.50000    0.09033
1398.00000    0.05645
1398.50000    0.02339
1399.00000   -0.00828
1399.50000   -0.03805
1400.00000   -0.06545
1400.50000   -0.09008
1401.00000   -0.11164
1401.50000   -0.12989
1402.00000   -0.14468
1402.50000   -0.15595
1403.00000   -0.16371
1403.50000   -0.16804
1404.00000   -0.16909
1404.50000   -0.16706
1405.00000   -0.16221
1405.50000   -0.15482
1406.00000   -0.14520
1406.50000   -0.13369
1407.00000   -0.12062
1407.50000   -0.10633
1408.00000   -0.09117
1408.50000   -0.07545
1409.00000   -0.05949
1409.50000   -0.04357
1410.00000   -0.02798
1410.50000   -0.01295
1411.00000    0.00127
1411.50000    0.01449
1412.00000    0.02650
1412.50000    0.03714
1413.00000    0.04626
1413.50000    0.05373
1414.00000    0.05942
1414.50000    0.06324
1415.00000    0.06513
1415.50000    0.06503
1416.00000    0.06291
1416.50000    0.05878
1417.00000    0.05266
1417.50000    0.04463
1418.00000    0.03477
1418.50000    0.02320
1419.00000    0.01010
1419.50000   -0.00436
1420.00000   -0.01995
1420.50000   -0.03643
1421.00000   -0.05353
1421.50000   -0.07099
1422.00000   -0.08851
1422.50000   -0.10582
1423.00000   -0.12263
1423.50000   -0.13868
1424.00000   -0.15374
1424.50000   -0.16759
1425.00000   -0.18004
1425.50000   -0.19096
1426.00000   -0.20024
1426.50000   -0.20781
1427.00000   -0.21363
1427.50000   -0.21772
1428.00000   -0.22011
1428.50000   -0.22088
1429.00000   -0.22011
1429.50000   -0.21792
1430.00000   -0.21444
1430.50000   -0.20981
1431.00000   -0.20415
1431.50000   -0.19760
1432.00000   -0.19031
1432.50000   -0.18239
1433.00000   -0.17395
1433.50000   -0.16510
1434.00000   -0.15593
1434.50000   -0.14651
1435.00000   -0.13691
1435.50000   -0.12718
1436.00000   -0.11737
1436.50000   -0.10751
1437.00000   -0.09763
1437.50000   -0.08775
1438.00000   -0.07786
1438.50000   -0.06798
1439.00000   -0.05809
1439.50000   -0.04819
1440.00000   -0.03825
1440.50000   -0.02825
1441.00000   -0.01817
1441.50000   -0.00797
1442.00000    0.00238
1442.50000    0.01289
1443.00000    0.02359
1443.50000    0.03448
1444.00000    0.04557
1444.50000    0.05682
1445.00000    0.06820
1445.50000    0.07966
1446.00000    0.09112
1446.50000    0.10248
1447.00000    0.11364
1447.50000    0.12448
1448.00000    0.13486
1448.50000    0.14465
1449.00000    0.15372
1449.50000    0.16196
1450.00000    0.16925
1450.50000    0.17551
1451.00000    0.18069
1451.50000    0.18475
1452.00000    0.18771
1452.50000    0.18960
1453.00000    0.19047
1453.50000    0.19042
1454.00000    0.18954
1454.50000    0.18795
1455.00000    0.18578
1455.50000    0.18312
1456.00000    0.18009
1456.50000    0.17676
1457.00000    0.17318
1457.50000    0.16937
1458.00000    0.16533
1458.50000    0.16100
1459.00000    0.15631
1459.50000    0.15114
1460.00000    0.14538
1460.50000    0.13889
1461.00000    0.13153
1461.50000    0.12318
1462.00000    0.11375
1462.50000    0.10315
1463.00000    0.09137
1463.50000    0.07844
1464.00000    0.06443
1464.50000    0.04948
1465.00000    0.03377
1465.50000    0.01755
1466.00000    0.00109
1466.50000   -0.01527
1467.00000   -0.03122
1467.50000   -0.04638
1468.00000   -0.06041
1468.50000   -0.07298
1469.00000   -0.08379
1469.50000   -0.09256
1470.00000   -0.09908
1470.50000   -0.10320
1471.00000   -0.10483
1471.50000   -0.10394
1472.00000   -0.10057
1472.50000   -0.09481
1473.00000   -0.08681
1473.50000   -0.07679
1474.00000   -0.06496
1474.50000   -0.05162
1475.00000   -0.03704
1475.50000   -0.02152
1476.00000   -0.00538
1476.50000    0.01108
1477.00000    0.02758
1477.50000    0.04383
1478.00000    0.05958
1478.50000    0.07459
1479.00000    0.08866
1479.50000    0.10158
1480.00000    0.11320
1480.50000    0.12336
1481.00000    0.13195
1481.50000    0.13886
1482.00000    0.14400
1482.50000    0.14730
1483.00000    0.14870
1483.50000    0.14818
1484.00000    0.14571
1484.50000    0.14132
1485.00000    0.13502
1485.50000    0.12687
1486.00000    0.11695
1486.50000    0.10536
1487.00000    0.09225
1487.50000    0.07778
1488.00000    0.06213
1488.50000    0.04552
1489.00000    0.02821
1489.50000    0.01043
1490.00000   -0.00752
1490.50000   -0.02536
1491.00000   -0.04280
1491.50000   -0.05956
1492.00000   -0.07536
1492.50000   -0.08993
1493.00000   -0.10305
1493.50000   -0.11451
1494.00000   -0.12414
1494.50000   -0.13181
1495.00000   -0.13744
1495.50000   -0.14099
1496.00000   -0.14248
1496.50000   -0.14195
1497.00000   -0.13951
1497.50000   -0.13531
1498.00000   -0.12952
1498.50000   -0.12234
1499.00000   -0.11401
1499.50000   -0.10477
1500.00000   -0.09486
1500.50000   -0.08451
1501.00000   -0.07395
1501.50000   -0.06337
1502.00000   -0.05294
1502.50000   -0.04278
1503.00000   -0.03298
1503.50000   -0.02358
1504.00000   -0.01458
1504.50000   -0.00592
1505.00000    0.00247
1505.50000    0.01072
1506.00000    0.01895
1506.50000    0.02733
1507.00000    0.03601
1507.50000    0.04515
1508.00000    0.05488
1508.50000    0.06531
1509.00000    0.07654
1509.50000    0.08859
1510.00000    0.10148
1510.50000    0.11515
1511.00000    0.12952
1511.50000    0.14444
1512.00000    0.15975
1512.50000    0.17525
1513.00000    0.19071
1513.50000    0.20590
1514.00000    0.22057
1514.50000    0.23449
1515.00000    0.24744
1515.50000    0.25919
1516.00000    0.26958
1516.50000    0.27844
1517.00000    0.28563
1517.50000    0.29106
1518.00000    0.29463
1518.50000    0.29629
1519.00000    0.29598
1519.50000    0.29366
1520.00000    0.28928
1520.50000    0.28281
1521.00000    0.27418
1521.50000    0.26333
1522.00000    0.25020
1522.50000    0.23469
1523.00000    0.21673
1523.50000    0.19621
1524.00000    0.17306
1524.50000    0.14722
1525.00000    0.11865
1525.50000    0.08734
1526.00000    0.05334
1526.50000    0.01675
1527.00000   -0.02229
1527.50000   -0.06353
1528.00000   -0.10670
1528.50000   -0.15143
1529.00000   -0.19729
1529.50000   -0.24381
1530.00000   -0.29046
1530.50000   -0.33665
1531.00000   -0.38179
1531.50000   -0.42527
1532.00000   -0.46647
1532.50000   -0.50482
1533.00000   -0.53974
1533.50000   -0.57073
1534.00000   -0.59735
1534.50000   -0.61921
1535.00000   -0.63600
1535.50000   -0.64751
1536.00000   -0.65361
1536.50000   -0.65423
1537.00000   -0.64944
1537.50000   -0.63934
1538.00000   -0.62413
1538.50000   -0.60410
1539.00000   -0.57958
1539.50000   -0.55097
1540.00000   -0.51872
1540.50000   -0.48333
1541.00000   -0.44530
1541.50000   -0.40518
1542.00000   -0.36354
1542.50000   -0.32093
1543.00000   -0.27791
1543.50000   -0.23502
1544.00000   -0.19278
1544.50000   -0.15167
1545.00000   -0.11213
1545.50000   -0.07458
1546.00000   -0.03934
1546.50000   -0.00671
1547.00000    0.02309
1547.50000    0.04991
1548.00000    0.07365
1548.50000    0.09429
1549.00000    0.11187
1549.50000    0.12649
1550.00000    0.13829
1550.50000    0.14748
1551.00000    0.15428
1551.50000    0.15896
1552.00000    0.16180
1552.50000    0.16306
1553.00000    0.16305
1553.50000    0.16201
1554.00000    0.16020
1554.50000    0.15784
1555.00000    0.15512
1555.50000    0.15219
1556.00000    0.14917
1556.50000    0.14618
1557.00000    0.14326
1557.50000    0.14049
1558.00000    0.13791
1558.50000    0.13554
1559.00000    0.13344
1559.50000    0.13165
1560.00000    0.13027
1560.50000    0.12937
1561.00000    0.12909
1561.50000    0.12960
1562.00000    0.13108
1562.50000    0.13375
1563.00000    0.13788
1563.50000    0.14375
1564.00000    0.15166
1564.50000    0.16192
1565.00000    0.17488
1565.50000    0.19085
1566.00000    0.21017
1566.50000    0.23316
1567.00000    0.26011
1567.50000    0.29131
1568.00000    0.32703
1568.50000    0.36752
1569.00000    0.41297
1569.50000    0.46360
1570.00000    0.51955
1570.50000    0.58097
1571.00000    0.64796
1571.50000    0.72061
1572.00000    0.79894
1572.50000    0.88297
1573.00000    0.97265
1573.50000    1.06791
1574.00000    1.16861
1574.50000    1.27455
1575.00000    1.38548
1575.50000    1.50107
1576.00000    1.62092
1576.50000    1.74455
1577.00000    1.87139
1577.50000    2.00082
1578.00000    2.13209
1578.50000    2.26444
1579.00000    2.39699
1579.50000    2.52883
1580.00000    2.65901
1580.50000    2.78654
1581.00000    2.91039
1581.50000    3.02957
1582.00000    3.14307
1582.50000    3.24993
1583.00000    3.34922
1583.50000    3.44008
1584.00000    3.52172
1584.50000    3.59344
1585.00000    3.65463
1585.50000    3.70477
1586.00000    3.74348
1586.50000    3.77045
1587.00000    3.78552
1587.50000    3.78861
1588.00000    3.77976
1588.50000    3.75910
1589.00000    3.72688
1589.50000    3.68341
1590.00000    3.62908
1590.50000    3.56435
1591.00000    3.48974
1591.50000    3.40582
1592.00000    3.31320
1592.50000    3.21255
1593.00000    3.10453
1593.50000    2.98985
1594.00000    2.86925
1594.50000    2.74348
1595.00000    2.61328
1595.50000    2.47946
1596.00000    2.34278
1596.50000    2.20404
1597.00000    2.06405
1597.50000    1.92360
1598.00000    1.78348
1598.50000    1.64450
1599.00000    1.50742
1599.50000    1.37301
1600.00000    1.24200
1600.50000    1.11509
1601.00000    0.99294
1601.50000    0.87617
1602.00000    0.76533
1602.50000    0.66092
1603.00000    0.56336
1603.50000    0.47301
1604.00000    0.39015
1604.50000    0.31497
1605.00000    0.24758
1605.50000    0.18800
1606.00000    0.13618
1606.50000    0.09199
1607.00000    0.05521
1607.50000    0.02557
1608.00000    0.00271
1608.50000   -0.01375
1609.00000   -0.02427
1609.50000   -0.02932
1610.00000   -0.02943
1610.50000   -0.02512
1611.00000   -0.01693
1611.50000   -0.00543
1612.00000    0.00884
1612.50000    0.02534
1613.00000    0.04354
1613.50000    0.06294
1614.00000    0.08306
1614.50000    0.10344
1615.00000    0.12363
1615.50000    0.14326
1616.00000    0.16193
1616.50000    0.17932
1617.00000    0.19513
1617.50000    0.20907
1618.00000    0.22092
1618.50000    0.23048
1619.00000    0.23760
1619.50000    0.24215
1620.00000    0.24408
1620.50000    0.24336
1621.00000    0.24002
1621.50000    0.23412
1622.00000    0.22579
1622.50000    0.21521
1623.00000    0.20260
1623.50000    0.18825
1624.00000    0.17246
1624.50000    0.15559
1625.00000    0.13802
1625.50000    0.12016
1626.00000    0.10242
1626.50000    0.08523
1627.00000    0.06897
1627.50000    0.05403
1628.00000    0.04074
1628.50000    0.02938
1629.00000    0.02019
1629.50000    0.01329
1630.00000    0.00876
1630.50000    0.00658
1631.00000    0.00662
1631.50000    0.00869
1632.00000    0.01249
1632.50000    0.01765
1633.00000    0.02373
1633.50000    0.03025
1634.00000    0.03666
1634.50000    0.04241
1635.00000    0.04697
1635.50000    0.04980
1636.00000    0.05043
1636.50000    0.04846
1637.00000    0.04354
1637.50000    0.03545
1638.00000    0.02406
1638.50000    0.00936
1639.00000   -0.00854
1639.50000   -0.02944
1640.00000   -0.05299
1640.50000   -0.07880
1641.00000   -0.10636
1641.50000   -0.13512
1642.00000   -0.16448
1642.50000   -0.19383
1643.00000   -0.22255
1643.50000   -0.25004
1644.00000   -0.27576
1644.50000   -0.29920
1645.00000   -0.31995
1645.50000   -0.33766
1646.00000   -0.35208
1646.50000   -0.36305
1647.00000   -0.37049
1647.50000   -0.37443
1648.00000   -0.37496
1648.50000   -0.37223
1649.00000   -0.36647
1649.50000   -0.35796
1650.00000   -0.34698
1650.50000   -0.33389
1651.00000   -0.31902
1651.50000   -0.30273
1652.00000   -0.28538
1652.50000   -0.26732
1653.00000   -0.24889
1653.50000   -0.23043
1654.00000   -0.21225
1654.50000   -0.19463
1655.00000   -0.17786
1655.50000   -0.16217
1656.00000   -0.14779
1656.50000   -0.13489
1657.00000   -0.12363
1657.50000   -0.11413
1658.00000   -0.10643
1658.50000   -0.10057
1659.00000   -0.09650
1659.50000   -0.09415
1660.00000   -0.09338
1660.50000   -0.09401
1661.00000   -0.09582
1661.50000   -0.09853
1662.00000   -0.10187
1662.50000   -0.10554
1663.00000   -0.10922
1663.50000   -0.11262
1664.00000   -0.11545
1664.50000   -0.11748
1665.00000   -0.11848
1665.50000   -0.11832
1666.00000   -0.11687
1666.50000   -0.11409
1667.00000   -0.10998
1667.50000   -0.10458
1668.00000   -0.09799
1668.50000   -0.09033
1669.00000   -0.08173
1669.50000   -0.07234
1670.00000   -0.06228
1670.50000   -0.05166
1671.00000   -0.04056
1671.50000   -0.02901
1672.00000   -0.01700
1672.50000   -0.00446
1673.00000    0.00871
1673.50000    0.02267
1674.00000    0.03759
1674.50000    0.05365
1675.00000    0.07106
1675.50000    0.08999
1676.00000    0.11058
1676.50000    0.13293
1677.00000    0.15708
1677.50000    0.18299
1678.00000    0.21055
1678.50000    0.23958
1679.00000    0.26981
1679.50000    0.30088
1680.00000    0.33239
1680.50000    0.36389
1681.00000    0.39486
1681.50000    0.42481
1682.00000    0.45319
1682.50000    0.47953
1683.00000    0.50335
1683.50000    0.52424
1684.00000    0.54184
1684.50000    0.55590
1685.00000    0.56621
1685.50000    0.57267
1686.00000    0.57526
1686.50000    0.57401
1687.00000    0.56905
1687.50000    0.56056
1688.00000    0.54878
1688.50000    0.53398
1689.00000    0.51645
1689.50000    0.49653
1690.00000    0.47453
1690.50000    0.45081
1691.00000    0.42568
1691.50000    0.39946
1692.00000    0.37246
1692.50000    0.34498
1693.00000    0.31729
1693.50000    0.28964
1694.00000    0.26230
1694.50000    0.23548
1695.00000    0.20941
1695.50000    0.18430
1696.00000    0.16035
1696.50000    0.13775
1697.00000    0.11666
1697.50000    0.09726
1698.00000    0.07968
1698.50000    0.06407
1699.00000    0.05053
1699.50000    0.03916
1700.00000    0.03003
1700.50000    0.02320
1701.00000    0.01869
1701.50000    0.01654
1702.00000    0.01673
1702.50000    0.01925
1703.00000    0.02407
1703.50000    0.03114
1704.00000    0.04040
1704.50000    0.05180
1705.00000    0.06526
1705.50000    0.08070
1706.00000    0.09805
1706.50000    0.11720
1707.00000    0.13807
1707.50000    0.16053
1708.00000    0.18448
1708.50000    0.20977
1709.00000    0.23625
1709.50000    0.26378
1710.00000    0.29217
1710.50000    0.32123
1711.00000    0.35075
1711.50000    0.38053
1712.00000    0.41034
1712.50000    0.43994
1713.00000    0.46911
1713.50000    0.49761
1714.00000    0.52522
1714.50000    0.55172
1715.00000    0.57691
1715.50000    0.60057
1716.00000    0.62253
1716.50000    0.64261
1717.00000    0.66063
1717.50000    0.67645
1718.00000    0.68990
1718.50000    0.70084
1719.00000    0.70912
1719.50000    0.71461
1720.00000    0.71716
1720.50000    0.71663
1721.00000    0.71290
1721.50000    0.70583
1722.00000    0.69533
1722.50000    0.68130
1723.00000    0.66367
1723.50000    0.64240
1724.00000    0.61752
1724.50000    0.58905
1725.00000    0.55710
1725.50000    0.52183
1726.00000    0.48343
1726.50000    0.44217
1727.00000    0.39836
1727.50000    0.35234
1728.00000    0.30452
1728.50000    0.25530
1729.00000    0.20512
1729.50000    0.15443
1730.00000    0.10365
1730.50000    0.05322
1731.00000    0.00350
1731.50000   -0.04513
1732.00000   -0.09237
1732.50000   -0.13796
1733.00000   -0.18167
1733.50000   -0.22335
1734.00000   -0.26285
1734.50000   -0.30011
1735.00000   -0.33505
1735.50000   -0.36764
1736.00000   -0.39784
1736.50000   -0.42561
1737.00000   -0.45090
1737.50000   -0.47364
1738.00000   -0.49372
1738.50000   -0.51102
1739.00000   -0.52537
1739.50000   -0.53657
1740.00000   -0.54441
1740.50000   -0.54866
1741.00000   -0.54910
1741.50000   -0.54549
1742.00000   -0.53766
1742.50000   -0.52545
1743.00000   -0.50876
1743.50000   -0.48757
1744.00000   -0.46192
1744.50000   -0.43195
1745.00000   -0.39788
1745.50000   -0.36002
1746.00000   -0.31877
1746.50000   -0.27462
1747.00000   -0.22811
1747.50000   -0.17986
1748.00000   -0.13051
1748.50000   -0.08073
1749.00000   -0.03121
1749.50000    0.01740
1750.00000    0.06445
1750.50000    0.10938
1751.00000    0.15165
1751.50000    0.19081
1752.00000    0.22650
1752.50000    0.25844
1753.00000    0.28642
1753.50000    0.31032
1754.00000    0.33010
1754.50000    0.34579
1755.00000    0.35745
1755.50000    0.36521
1756.00000    0.36924
1756.50000    0.36969
1757.00000    0.36676
1757.50000    0.36064
1758.00000    0.35151
1758.50000    0.33954
1759.00000    0.32488
1759.50000    0.30768
1760.00000    0.28807
1760.50000    0.26618
1761.00000    0.24212
1761.50000    0.21604
1762.00000    0.18807
1762.50000    0.15837
1763.00000    0.12716
1763.50000    0.09465
1764.00000    0.06113
1764.50000    0.02691
1765.00000   -0.00765
1765.50000   -0.04214
1766.00000   -0.07612
1766.50000   -0.10911
1767.00000   -0.14064
1767.50000   -0.17020
1768.00000   -0.19730
1768.50000   -0.22146
1769.00000   -0.24224
1769.50000   -0.25924
1770.00000   -0.27211
1770.50000   -0.28058
1771.00000   -0.28446
1771.50000   -0.28361
1772.00000   -0.27803
1772.50000   -0.26776
1773.00000   -0.25296
1773.50000   -0.23387
1774.00000   -0.21082
1774.50000   -0.18419
1775.00000   -0.15445
1775.50000   -0.12213
1776.00000   -0.08779
1776.50000   -0.05203
1777.00000   -0.01546
1777.50000    0.02128
1778.00000    0.05758
1778.50000    0.09285
1779.00000    0.12651
1779.50000    0.15806
1780.00000    0.18704
1780.50000    0.21306
1781.00000    0.23579
1781.50000    0.25503
1782.00000    0.27061
1782.50000    0.28250
1783.00000    0.29073
1783.50000    0.29544
1784.00000    0.29682
1784.50000    0.29518
1785.00000    0.29086
1785.50000    0.28427
1786.00000    0.27584
1786.50000    0.26604
1787.00000    0.25532
1787.50000    0.24413
1788.00000    0.23288
1788.50000    0.22193
1789.00000    0.21160
1789.50000    0.20210
1790.00000    0.19359
1790.50000    0.18613
1791.00000    0.17972
1791.50000    0.17424
1792.00000    0.16954
1792.50000    0.16540
1793.00000    0.16156
1793.50000    0.15775
1794.00000    0.15368
1794.50000    0.14908
1795.00000    0.14374
1795.50000    0.13747
1796.00000    0.13017
1796.50000    0.12180
1797.00000    0.11239
1797.50000    0.10205
1798.00000    0.09095
1798.50000    0.07932
1799.00000    0.06743
1799.50000    0.05555
1800.00000    0.04398
1800.50000    0.03299
1801.00000    0.02280
1801.50000    0.01360
1802.00000    0.00548
1802.50000   -0.00151
1803.00000   -0.00744
1803.50000   -0.01243
1804.00000   -0.01670
1804.50000   -0.02051
1805.00000   -0.02421
1805.50000   -0.02812
1806.00000   -0.03264
1806.50000   -0.03810
1807.00000   -0.04482
1807.50000   -0.05306
1808.00000   -0.06302
1808.50000   -0.07478
1809.00000   -0.08836
1809.50000   -0.10365
1810.00000   -0.12046
1810.50000   -0.13851
1811.00000   -0.15743
1811.50000   -0.17681
1812.00000   -0.19619
1812.50000   -0.21511
1813.00000   -0.23309
1813.50000   -0.24970
1814.00000   -0.26456
1814.50000   -0.27735
1815.00000   -0.28782
1815.50000   -0.29581
1816.00000   -0.30126
1816.50000   -0.30418
1817.00000   -0.30466
1817.50000   -0.30288
1818.00000   -0.29906
1818.50000   -0.29347
1819.00000   -0.28639
1819.50000   -0.27812
1820.00000   -0.26893
1820.50000   -0.25908
1821.00000   -0.24878
1821.50000   -0.23818
1822.00000   -0.22740
1822.50000   -0.21647
1823.00000   -0.20537
1823.50000   -0.19403
1824.00000   -0.18234
1824.50000   -0.17013
1825.00000   -0.15725
1825.50000   -0.14351
1826.00000   -0.12874
1826.50000   -0.11282
1827.00000   -0.09561
1827.50000   -0.07709
1828.00000   -0.05723
1828.50000   -0.03612
1829.00000   -0.01386
1829.50000    0.00934
1830.00000    0.03325
1830.50000    0.05756
1831.00000    0.08195
1831.50000    0.10604
1832.00000    0.12948
1832.50000    0.15190
1833.00000    0.17293
1833.50000    0.19228
1834.00000    0.20966
1834.50000    0.22488
1835.00000    0.23777
1835.50000    0.24829
1836.00000    0.25642
1836.50000    0.26226
1837.00000    0.26596
1837.50000    0.26774
1838.00000    0.26787
1838.50000    0.26668
1839.00000    0.26450
1839.50000    0.26170
1840.00000    0.25863
1840.50000    0.25563
1841.00000    0.25300
1841.50000    0.25099
1842.00000    0.24980
1842.50000    0.24956
1843.00000    0.25034
1843.50000    0.25213
1844.00000    0.25485
1844.50000    0.25838
1845.00000    0.26251
1845.50000    0.26701
1846.00000    0.27162
1846.50000    0.27603
1847.00000    0.27996
1847.50000    0.28311
1848.00000    0.28518
1848.50000    0.28594
1849.00000    0.28515
1849.50000    0.28264
1850.00000    0.27826
1850.50000    0.27191
1851.00000    0.26355
1851.50000    0.25318
1852.00000    0.24082
1852.50000    0.22655
1853.00000    0.21047
1853.50000    0.19271
1854.00000    0.17342
1854.50000    0.15276
1855.00000    0.13089
1855.50000    0.10801
1856.00000    0.08427
1856.50000    0.05986
1857.00000    0.03496
1857.50000    0.00971
1858.00000   -0.01571
1858.50000   -0.04117
1859.00000   -0.06653
1859.50000   -0.09167
1860.00000   -0.11650
1860.50000   -0.14091
1861.00000   -0.16486
1861.50000   -0.18828
1862.00000   -0.21116
1862.50000   -0.23349
1863.00000   -0.25528
1863.50000   -0.27656
1864.00000   -0.29737
1864.50000   -0.31776
1865.00000   -0.33777
1865.50000   -0.35743
1866.00000   -0.37679
1866.50000   -0.39584
1867.00000   -0.41454
1867.50000   -0.43285
1868.00000   -0.45064
1868.50000   -0.46778
1869.00000   -0.48406
1869.50000   -0.49923
1870.00000   -0.51302
1870.50000   -0.52511
1871.00000   -0.53517
1871.50000   -0.54283
1872.00000   -0.54776
1872.50000   -0.54963
1873.00000   -0.54816
1873.50000   -0.54309
1874.00000   -0.53427
1874.50000   -0.52158
1875.00000   -0.50504
1875.50000   -0.48472
1876.00000   -0.46079
1876.50000   -0.43353
1877.00000   -0.40328
1877.50000   -0.37048
1878.00000   -0.33560
1878.50000   -0.29918
1879.00000   -0.26177
1879.50000   -0.22394
1880.00000   -0.18623
1880.50000   -0.14918
1881.00000   -0.11327
1881.50000   -0.07893
1882.00000   -0.04651
1882.50000   -0.01630
1883.00000    0.01149
1883.50000    0.03672
1884.00000    0.05934
1884.50000    0.07936
1885.00000    0.09687
1885.50000    0.11198
1886.00000    0.12488
1886.50000    0.13577
1887.00000    0.14487
1887.50000    0.15243
1888.00000    0.15869
1888.50000    0.16390
1889.00000    0.16827
1889.50000    0.17203
1890.00000    0.17537
1890.50000    0.17846
1891.00000    0.18146
1891.50000    0.18449
1892.00000    0.18764
1892.50000    0.19100
1893.00000    0.19459
1893.50000    0.19843
1894.00000    0.20249
1894.50000    0.20671
1895.00000    0.21101
1895.50000    0.21526
1896.00000    0.21930
1896.50000    0.22295
1897.00000    0.22600
1897.50000    0.22824
1898.00000    0.22943
1898.50000    0.22937
1899.00000    0.22784
1899.50000    0.22469
1900.00000    0.21978
1900.50000    0.21306
1901.00000    0.20452
1901.50000    0.19424
1902.00000    0.18238
1902.50000    0.16918
1903.00000    0.15496
1903.50000    0.14011
1904.00000    0.12508
1904.50000    0.11038
1905.00000    0.09651
1905.50000    0.08399
1906.00000    0.07332
1906.50000    0.06496
1907.00000    0.05927
1907.50000    0.05655
1908.00000    0.05698
1908.50000    0.06061
1909.00000    0.06736
1909.50000    0.07704
1910.00000    0.08932
1910.50000    0.10376
1911.00000    0.11985
1911.50000    0.13697
1912.00000    0.15450
1912.50000    0.17178
1913.00000    0.18817
1913.50000    0.20309
1914.00000    0.21599
1914.50000    0.22645
1915.00000    0.23413
1915.50000    0.23882
1916.00000    0.24042
1916.50000    0.23898
1917.00000    0.23463
1917.50000    0.22764
1918.00000    0.21835
1918.50000    0.20718
1919.00000    0.19458
1919.50000    0.18105
1920.00000    0.16709
1920.50000    0.15317
1921.00000    0.13972
1921.50000    0.12714
1922.00000    0.11573
1922.50000    0.10574
1923.00000    0.09733
1923.50000    0.09057
1924.00000    0.08546
1924.50000    0.08193
1925.00000    0.07983
1925.50000    0.07896
1926.00000    0.07909
1926.50000    0.07995
1927.00000    0.08123
1927.50000    0.08265
1928.00000    0.08392
1928.50000    0.08475
1929.00000    0.08488
1929.50000    0.08409
1930.00000    0.08217
1930.50000    0.07896
1931.00000    0.07432
1931.50000    0.06816
1932.00000    0.06042
1932.50000    0.05107
1933.00000    0.04013
1933.50000    0.02763
1934.00000    0.01363
1934.50000   -0.00178
1935.00000   -0.01849
1935.50000   -0.03638
1936.00000   -0.05529
1936.50000   -0.07507
1937.00000   -0.09554
1937.50000   -0.11651
1938.00000   -0.13779
1938.50000   -0.15917
1939.00000   -0.18040
1939.50000   -0.20127
1940.00000   -0.22150
1940.50000   -0.24085
1941.00000   -0.25902
1941.50000   -0.27572
1942.00000   -0.29065
1942.50000   -0.30351
1943.00000   -0.31399
1943.50000   -0.32179
1944.00000   -0.32662
1944.50000   -0.32822
1945.00000   -0.32637
1945.50000   -0.32090
1946.00000   -0.31168
1946.50000   -0.29870
1947.00000   -0.28197
1947.50000   -0.26163
1948.00000   -0.23792
1948.50000   -0.21115
1949.00000   -0.18175
1949.50000   -0.15022
1950.00000   -0.11715
1950.50000   -0.08320
1951.00000   -0.04905
1951.50000   -0.01545
1952.00000    0.01687
1952.50000    0.04721
1953.00000    0.07488
1953.50000    0.09927
1954.00000    0.11985
1954.50000    0.13619
1955.00000    0.14797
1955.50000    0.15499
1956.00000    0.15717
1956.50000    0.15458
1957.00000    0.14738
1957.50000    0.13585
1958.00000    0.12038
1958.50000    0.10145
1959.00000    0.07958
1959.50000    0.05535
1960.00000    0.02938
1960.50000    0.00230
1961.00000   -0.02529
1961.50000   -0.05280
1962.00000   -0.07965
1962.50000   -0.10534
1963.00000   -0.12940
1963.50000   -0.15145
1964.00000   -0.17112
1964.50000   -0.18816
1965.00000   -0.20234
1965.50000   -0.21353
1966.00000   -0.22163
1966.50000   -0.22661
1967.00000   -0.22850
1967.50000   -0.22738
1968.00000   -0.22336
1968.50000   -0.21663
1969.00000   -0.20740
1969.50000   -0.19593
1970.00000   -0.18251
1970.50000   -0.16745
1971.00000   -0.15111
1971.50000   -0.13385
1972.00000   -0.11604
1972.50000   -0.09805
1973.00000   -0.08026
1973.50000   -0.06303
1974.00000   -0.04669
1974.50000   -0.03153
1975.00000   -0.01782
1975.50000   -0.00578
1976.00000    0.00442
1976.50000    0.01268
1977.00000    0.01893
1977.50000    0.02318
1978.00000    0.02546
1978.50000    0.02590
1979.00000    0.02463
1979.50000    0.02185
1980.00000    0.01779
1980.50000    0.01269
1981.00000    0.00684
1981.50000    0.00053
1982.00000   -0.00597
1982.50000   -0.01235
1983.00000   -0.01834
1983.50000   -0.02368
1984.00000   -0.02814
1984.50000   -0.03150
1985.00000   -0.03359
1985.50000   -0.03428
1986.00000   -0.03347
1986.50000   -0.03111
1987.00000   -0.02720
1987.50000   -0.02176
1988.00000   -0.01487
1988.50000   -0.00664
1989.00000    0.00277
1989.50000    0.01321
1990.00000    0.02449
1990.50000    0.03641
1991.00000    0.04877
1991.50000    0.06139
1992.00000    0.07409
1992.50000    0.08673
1993.00000    0.09919
1993.50000    0.11138
1994.00000    0.12325
1994.50000    0.13481
1995.00000    0.14606
1995.50000    0.15706
1996.00000    0.16789
1996.50000    0.17861
1997.00000    0.18932
1997.50000    0.20009
1998.00000    0.21095
1998.50000    0.22194
1999.00000    0.23302
1999.50000    0.24411
2000.00000    0.25508
2000.50000    0.26575
2001.00000    0.27587
2001.50000    0.28517
2002.00000    0.29332
2002.50000    0.29998
2003.00000    0.30480
2003.50000    0.30745
2004.00000    0.30761
2004.50000    0.30503
2005.00000    0.29950
2005.50000    0.29090
2006.00000    0.27920
2006.50000    0.26446
2007.00000    0.24686
2007.50000    0.22665
2008.00000    0.20420
2008.50000    0.17996
2009.00000    0.15442
2009.50000    0.12817
2010.00000    0.10178
2010.50000    0.07585
2011.00000    0.05096
2011.50000    0.02764
2012.00000    0.00639
2012.50000   -0.01241
2013.00000   -0.02845
2013.50000   -0.04151
2014.00000   -0.05151
2014.50000   -0.05846
2015.00000   -0.06247
2015.50000   -0.06376
2016.00000   -0.06265
2016.50000   -0.05950
2017.00000   -0.05476
2017.50000   -0.04890
2018.00000   -0.04241
2018.50000   -0.03579
2019.00000   -0.02952
2019.50000   -0.02404
2020.00000   -0.01975
2020.50000   -0.01699
2021.00000   -0.01602
2021.50000   -0.01703
2022.00000   -0.02015
2022.50000   -0.02541
2023.00000   -0.03277
2023.50000   -0.04213
2024.00000   -0.05331
2024.50000   -0.06610
2025.00000   -0.08021
2025.50000   -0.09536
2026.00000   -0.11121
2026.50000   -0.12744
2027.00000   -0.14372
2027.50000   -0.15973
2028.00000   -0.17517
2028.50000   -0.18976
2029.00000   -0.20328
2029.50000   -0.21552
2030.00000   -0.22633
2030.50000   -0.23561
2031.00000   -0.24327
2031.50000   -0.24931
2032.00000   -0.25372
2032.50000   -0.25655
2033.00000   -0.25788
2033.50000   -0.25780
2034.00000   -0.25642
2034.50000   -0.25385
2035.00000   -0.25022
2035.50000   -0.24563
2036.00000   -0.24019
2036.50000   -0.23398
2037.00000   -0.22708
2037.50000   -0.21952
2038.00000   -0.21134
2038.50000   -0.20256
2039.00000   -0.19316
2039.50000   -0.18312
2040.00000   -0.17242
2040.50000   -0.16103
2041.00000   -0.14893
2041.50000   -0.13608
2042.00000   -0.12249
2042.50000   -0.10816
2043.00000   -0.09312
2043.50000   -0.07743
2044.00000   -0.06117
2044.50000   -0.04445
2045.00000   -0.02737
2045.50000   -0.01009
2046.00000    0.00723
2046.50000    0.02443
2047.00000    0.04133
2047.50000    0.05777
2048.00000    0.07358
2048.50000    0.08861
2049.00000    0.10272
2049.50000    0.11580
2050.00000    0.12776
2050.50000    0.13852
2051.00000    0.14803
2051.50000    0.15628
2052.00000    0.16323
2052.50000    0.16891
2053.00000    0.17332
2053.50000    0.17649
2054.00000    0.17845
2054.50000    0.17922
2055.00000    0.17884
2055.50000    0.17732
2056.00000    0.17470
2056.50000    0.17100
2057.00000    0.16625
2057.50000    0.16049
2058.00000    0.15376
2058.50000    0.14611
2059.00000    0.13761
2059.50000    0.12836
2060.00000    0.11846
2060.50000    0.10805
2061.00000    0.09726
2061.50000    0.08628
2062.00000    0.07527
2062.50000    0.06441
2063.00000    0.05390
2063.50000    0.04391
2064.00000    0.03461
2064.50000    0.02616
2065.00000    0.01866
2065.50000    0.01221
2066.00000    0.00687
2066.50000    0.00267
2067.00000   -0.00044
2067.50000   -0.00248
2068.00000   -0.00356
2068.50000   -0.00378
2069.00000   -0.00329
2069.50000   -0.00223
2070.00000   -0.00076
2070.50000    0.00096
2071.00000    0.00279
2071.50000    0.00459
2072.00000    0.00626
2072.50000    0.00772
2073.00000    0.00891
2073.50000    0.00981
2074.00000    0.01044
2074.50000    0.01082
2075.00000    0.01101
2075.50000    0.01109
2076.00000    0.01113
2076.50000    0.01123
2077.00000    0.01147
2077.50000    0.01190
2078.00000    0.01259
2078.50000    0.01354
2079.00000    0.01476
2079.50000    0.01619
2080.00000    0.01776
2080.50000    0.01934
2081.00000    0.02080
2081.50000    0.02195
2082.00000    0.02259
2082.50000    0.02249
2083.00000    0.02143
2083.50000    0.01916
2084.00000    0.01547
2084.50000    0.01015
2085.00000    0.00303
2085.50000   -0.00601
2086.00000   -0.01707
2086.50000   -0.03017
2087.00000   -0.04527
2087.50000   -0.06226
2088.00000   -0.08097
2088.50000   -0.10115
2089.00000   -0.12247
2089.50000   -0.14455
2090.00000   -0.16695
2090.50000   -0.18917
2091.00000   -0.21069
2091.50000   -0.23096
2092.00000   -0.24943
2092.50000   -0.26554
2093.00000   -0.27878
2093.50000   -0.28869
2094.00000   -0.29485
2094.50000   -0.29695
2095.00000   -0.29476
2095.50000   -0.28814
2096.00000   -0.27709
2096.50000   -0.26172
2097.00000   -0.24223
2097.50000   -0.21896
2098.00000   -0.19234
2098.50000   -0.16288
2099.00000   -0.13118
2099.50000   -0.09786
2100.00000   -0.06358
2100.50000   -0.02900
2101.00000    0.00523
2101.50000    0.03854
2102.00000    0.07040
2102.50000    0.10037
2103.00000    0.12812
2103.50000    0.15341
2104.00000    0.17615
2104.50000    0.19631
2105.00000    0.21401
2105.50000    0.22942
2106.00000    0.24280
2106.50000    0.25448
2107.00000    0.26477
2107.50000    0.27404
2108.00000    0.28258
2108.50000    0.29070
2109.00000    0.29859
2109.50000    0.30640
2110.00000    0.31417
2110.50000    0.32185
2111.00000    0.32929
2111.50000    0.33627
2112.00000    0.34247
2112.50000    0.34752
2113.00000    0.35100
2113.50000    0.35251
2114.00000    0.35160
2114.50000    0.34788
2115.00000    0.34102
2115.50000    0.33074
2116.00000    0.31685
2116.50000    0.29926
2117.00000    0.27799
2117.50000    0.25314
2118.00000    0.22493
2118.50000    0.19367
2119.00000    0.15974
2119.50000    0.12360
2120.00000    0.08574
2120.50000    0.04670
2121.00000    0.00702
2121.50000   -0.03275
2122.00000   -0.07210
2122.50000   -0.11054
2123.00000   -0.14761
2123.50000   -0.18294
2124.00000   -0.21616
2124.50000   -0.24701
2125.00000   -0.27524
2125.50000   -0.30067
2126.00000   -0.32318
2126.50000   -0.34266
2127.00000   -0.35906
2127.50000   -0.37233
2128.00000   -0.38247
2128.50000   -0.38948
2129.00000   -0.39338
2129.50000   -0.39418
2130.00000   -0.39192
2130.50000   -0.38667
2131.00000   -0.37847
2131.50000   -0.36741
2132.00000   -0.35359
2132.50000   -0.33714
2133.00000   -0.31823
2133.50000   -0.29704
2134.00000   -0.27381
2134.50000   -0.24879
2135.00000   -0.22229
2135.50000   -0.19463
2136.00000   -0.16618
2136.50000   -0.13731
2137.00000   -0.10842
2137.50000   -0.07991
2138.00000   -0.05217
2138.50000   -0.02556
2139.00000   -0.00043
2139.50000    0.02291
2140.00000    0.04422
2140.50000    0.06330
2141.00000    0.08001
2141.50000    0.09430
2142.00000    0.10618
2142.50000    0.11573
2143.00000    0.12309
2143.50000    0.12846
2144.00000    0.13210
2144.50000    0.13429
2145.00000    0.13535
2145.50000    0.13559
2146.00000    0.13534
2146.50000    0.13489
2147.00000    0.13449
2147.50000    0.13438
2148.00000    0.13472
2148.50000    0.13562
2149.00000    0.13712
2149.50000    0.13921
2150.00000    0.14181
2150.50000    0.14481
2151.00000    0.14803
2151.50000    0.15127
2152.00000    0.15430
2152.50000    0.15691
2153.00000    0.15887
2153.50000    0.15996
2154.00000    0.16002
2154.50000    0.15890
2155.00000    0.15651
2155.50000    0.15278
2156.00000    0.14772
2156.50000    0.14137
2157.00000    0.13381
2157.50000    0.12515
2158.00000    0.11554
2158.50000    0.10513
2159.00000    0.09408
2159.50000    0.08257
2160.00000    0.07072
2160.50000    0.05868
2161.00000    0.04653
2161.50000    0.03435
2162.00000    0.02217
2162.50000    0.01000
2163.00000   -0.00220
2163.50000   -0.01446
2164.00000   -0.02687
2164.50000   -0.03949
2165.00000   -0.05239
2165.50000   -0.06564
2166.00000   -0.07926
2166.50000   -0.09327
2167.00000   -0.10762
2167.50000   -0.12222
2168.00000   -0.13694
2168.50000   -0.15156
2169.00000   -0.16584
2169.50000   -0.17948
2170.00000   -0.19211
2170.50000   -0.20335
2171.00000   -0.21279
2171.50000   -0.22001
2172.00000   -0.22458
2172.50000   -0.22612
2173.00000   -0.22428
2173.50000   -0.21877
2174.00000   -0.20938
2174.50000   -0.19599
2175.00000   -0.17856
2175.50000   -0.15720
2176.00000   -0.13210
2176.50000   -0.10358
2177.00000   -0.07205
2177.50000   -0.03805
2178.00000   -0.00216
2178.50000    0.03495
2179.00000    0.07258
2179.50000    0.11003
2180.00000    0.14658
2180.50000    0.18156
2181.00000    0.21437
2181.50000    0.24449
2182.00000    0.27147
2182.50000    0.29500
2183.00000    0.31486
2183.50000    0.33097
2184.00000    0.34336
2184.50000    0.35213
2185.00000    0.35750
2185.50000    0.35973
2186.00000    0.35915
2186.50000    0.35609
2187.00000    0.35088
2187.50000    0.34385
2188.00000    0.33524
2188.50000    0.32529
2189.00000    0.31411
2189.50000    0.30179
2190.00000    0.28833
2190.50000    0.27364
2191.00000    0.25760
2191.50000    0.24006
2192.00000    0.22082
2192.50000    0.19970
2193.00000    0.17653
2193.50000    0.15121
2194.00000    0.12367
2194.50000    0.09393
2195.00000    0.06209
2195.50000    0.02838
2196.00000   -0.00692
2196.50000   -0.04340
2197.00000   -0.08061
2197.50000   -0.11798
2198.00000   -0.15494
2198.50000   -0.19086
2199.00000   -0.22514
2199.50000   -0.25717
2200.00000   -0.28641
2200.50000   -0.31239
2201.00000   -0.33471
2201.50000   -0.35311
2202.00000   -0.36742
2202.50000   -0.37760
2203.00000   -0.38376
2203.50000   -0.38609
2204.00000   -0.38493
2204.50000   -0.38070
2205.00000   -0.37391
2205.50000   -0.36512
2206.00000   -0.35493
2206.50000   -0.34395
2207.00000   -0.33276
2207.50000   -0.32191
2208.00000   -0.31190
2208.50000   -0.30311
2209.00000   -0.29585
2209.50000   -0.29029
2210.00000   -0.28650
2210.50000   -0.28441
2211.00000   -0.28383
2211.50000   -0.28445
2212.00000   -0.28586
2212.50000   -0.28759
2213.00000   -0.28907
2213.50000   -0.28971
2214.00000   -0.28891
2214.50000   -0.28608
2215.00000   -0.28067
2215.50000   -0.27222
2216.00000   -0.26032
2216.50000   -0.24470
2217.00000   -0.22521
2217.50000   -0.20184
2218.00000   -0.17470
2218.50000   -0.14405
2219.00000   -0.11028
2219.50000   -0.07388
2220.00000   -0.03546
2220.50000    0.00431
2221.00000    0.04472
2221.50000    0.08501
2222.00000    0.12445
2222.50000    0.16231
2223.00000    0.19795
2223.50000    0.23076
2224.00000    0.26026
2224.50000    0.28604
2225.00000    0.30781
2225.50000    0.32540
2226.00000    0.33872
2226.50000    0.34779
2227.00000    0.35275
2227.50000    0.35376
2228.00000    0.35109
2228.50000    0.34504
2229.00000    0.33593
2229.50000    0.32411
2230.00000    0.30994
2230.50000    0.29377
2231.00000    0.27594
2231.50000    0.25677
2232.00000    0.23655
2232.50000    0.21557
2233.00000    0.19407
2233.50000    0.17229
2234.00000    0.15044
2234.50000    0.12870
2235.00000    0.10727
2235.50000    0.08629
2236.00000    0.06590
2236.50000    0.04623
2237.00000    0.02737
2237.50000    0.00940
2238.00000   -0.00760
2238.50000   -0.02363
2239.00000   -0.03865
2239.50000   -0.05269
2240.00000   -0.06577
2240.50000   -0.07795
2241.00000   -0.08927
2241.50000   -0.09979
2242.00000   -0.10957
2242.50000   -0.11863
2243.00000   -0.12698
2243.50000   -0.13461
2244.00000   -0.14144
2244.50000   -0.14737
2245.00000   -0.15227
2245.50000   -0.15593
2246.00000   -0.15813
2246.50000   -0.15863
2247.00000   -0.15715
2247.50000   -0.15344
2248.00000   -0.14724
2248.50000   -0.13833
2249.00000   -0.12654
2249.50000   -0.11178
2250.00000   -0.09401
2250.50000   -0.07330
2251.00000   -0.04981
2251.50000   -0.02381
2252.00000    0.00435
2252.50000    0.03424
2253.00000    0.06533
2253.50000    0.09704
2254.00000    0.12877
2254.50000    0.15987
2255.00000    0.18973
2255.50000    0.21775
2256.00000    0.24338
2256.50000    0.26615
2257.00000    0.28569
2257.50000    0.30171
2258.00000    0.31404
2258.50000    0.32262
2259.00000    0.32749
2259.50000    0.32881
2260.00000    0.32680
2260.50000    0.32177
2261.00000    0.31410
2261.50000    0.30417
2262.00000    0.29239
2262.50000    0.27918
2263.00000    0.26490
2263.50000    0.24989
2264.00000    0.23444
2264.50000    0.21877
2265.00000    0.20303
2265.50000    0.18732
2266.00000    0.17164
2266.50000    0.15597
2267.00000    0.14024
2267.50000    0.12431
2268.00000    0.10807
2268.50000    0.09136
2269.00000    0.07406
2269.50000    0.05606
2270.00000    0.03727
2270.50000    0.01767
2271.00000   -0.00273
2271.50000   -0.02386
2272.00000   -0.04560
2272.50000   -0.06777
2273.00000   -0.09016
2273.50000   -0.11250
2274.00000   -0.13450
2274.50000   -0.15585
2275.00000   -0.17621
2275.50000   -0.19528
2276.00000   -0.21275
2276.50000   -0.22834
2277.00000   -0.24180
2277.50000   -0.25295
2278.00000   -0.26164
2278.50000   -0.26780
2279.00000   -0.27139
2279.50000   -0.27247
2280.00000   -0.27116
2280.50000   -0.26762
2281.00000   -0.26210
2281.50000   -0.25487
2282.00000   -0.24628
2282.50000   -0.23668
2283.00000   -0.22646
2283.50000   -0.21603
2284.00000   -0.20576
2284.50000   -0.19604
2285.00000   -0.18721
2285.50000   -0.17955
2286.00000   -0.17330
2286.50000   -0.16863
2287.00000   -0.16564
2287.50000   -0.16433
2288.00000   -0.16463
2288.50000   -0.16638
2289.00000   -0.16935
2289.50000   -0.17323
2290.00000   -0.17767
2290.50000   -0.18224
2291.00000   -0.18653
2291.50000   -0.19007
2292.00000   -0.19241
2292.50000   -0.19315
2293.00000   -0.19188
2293.50000   -0.18827
2294.00000   -0.18206
2294.50000   -0.17306
2295.00000   -0.16114
2295.50000   -0.14627
2296.00000   -0.12852
2296.50000   -0.10802
2297.00000   -0.08497
2297.50000   -0.05965
2298.00000   -0.03240
2298.50000   -0.00360
2299.00000    0.02633
2299.50000    0.05694
2300.00000    0.08776
2300.50000    0.11832
2301.00000    0.14815
2301.50000    0.17678
2302.00000    0.20377
2302.50000    0.22869
2303.00000    0.25115
2303.50000    0.27077
2304.00000    0.28724
2304.50000    0.30028
2305.00000    0.30965
2305.50000    0.31518
2306.00000    0.31675
2306.50000    0.31431
2307.00000    0.30788
2307.50000    0.29752
2308.00000    0.28338
2308.50000    0.26569
2309.00000    0.24470
2309.50000    0.22074
2310.00000    0.19420
2310.50000    0.16547
2311.00000    0.13501
2311.50000    0.10326
2312.00000    0.07067
2312.50000    0.03770
2313.00000    0.00479
2313.50000   -0.02768
2314.00000   -0.05931
2314.50000   -0.08977
2315.00000   -0.11875
2315.50000   -0.14596
2316.00000   -0.17117
2316.50000   -0.19415
2317.00000   -0.21468
2317.50000   -0.23258
2318.00000   -0.24765
2318.50000   -0.25970
2319.00000   -0.26855
2319.50000   -0.27403
2320.00000   -0.27595
2320.50000   -0.27416
2321.00000   -0.26854
2321.50000   -0.25898
2322.00000   -0.24545
2322.50000   -0.22796
2323.00000   -0.20661
2323.50000   -0.18157
2324.00000   -0.15310
2324.50000   -0.12156
2325.00000   -0.08740
2325.50000   -0.05115
2326.00000   -0.01342
2326.50000    0.02514
2327.00000    0.06380
2327.50000    0.10185
2328.00000    0.13854
2328.50000    0.17319
2329.00000    0.20512
2329.50000    0.23373
2330.00000    0.25852
2330.50000    0.27907
2331.00000    0.29506
2331.50000    0.30630
2332.00000    0.31271
2332.50000    0.31431
2333.00000    0.31124
2333.50000    0.30373
2334.00000    0.29211
2334.50000    0.27676
2335.00000    0.25814
2335.50000    0.23674
2336.00000    0.21308
2336.50000    0.18772
2337.00000    0.16118
2337.50000    0.13401
2338.00000    0.10671
2338.50000    0.07977
2339.00000    0.05361
2339.50000    0.02865
2340.00000    0.00521
2340.50000   -0.01642
2341.00000   -0.03602
2341.50000   -0.05343
2342.00000   -0.06855
2342.50000   -0.08133
2343.00000   -0.09179
2343.50000   -0.09998
2344.00000   -0.10601
2344.50000   -0.11001
2345.00000   -0.11212
2345.50000   -0.11251
2346.00000   -0.11133
2346.50000   -0.10875
2347.00000   -0.10489
2347.50000   -0.09986
2348.00000   -0.09376
2348.50000   -0.08665
2349.00000   -0.07856
2349.50000   -0.06951
2350.00000   -0.05951
2350.50000   -0.04857
2351.00000   -0.03670
2351.50000   -0.02395
2352.00000   -0.01037
2352.50000    0.00393
2353.00000    0.01881
2353.50000    0.03407
2354.00000    0.04949
2354.50000    0.06478
2355.00000    0.07965
2355.50000    0.09377
2356.00000    0.10680
2356.50000    0.11844
2357.00000    0.12837
2357.50000    0.13633
2358.00000    0.14212
2358.50000    0.14557
2359.00000    0.14661
2359.50000    0.14520
2360.00000    0.14139
2360.50000    0.13530
2361.00000    0.12708
2361.50000    0.11695
2362.00000    0.10514
2362.50000    0.09190
2363.00000    0.07751
2363.50000    0.06223
2364.00000    0.04630
2364.50000    0.02996
2365.00000    0.01342
2365.50000   -0.00312
2366.00000   -0.01949
2366.50000   -0.03553
2367.00000   -0.05109
2367.50000   -0.06600
2368.00000   -0.08011
2368.50000   -0.09326
2369.00000   -0.10526
2369.50000   -0.11593
2370.00000   -0.12508
2370.50000   -0.13250
2371.00000   -0.13803
2371.50000   -0.14149
2372.00000   -0.14273
2372.50000   -0.14168
2373.00000   -0.13829
2373.50000   -0.13258
2374.00000   -0.12463
2374.50000   -0.11462
2375.00000   -0.10278
2375.50000   -0.08941
2376.00000   -0.07486
2376.50000   -0.05956
2377.00000   -0.04393
2377.50000   -0.02844
2378.00000   -0.01354
2378.50000    0.00032
2379.00000    0.01275
2379.50000    0.02337
2380.00000    0.03191
2380.50000    0.03813
2381.00000    0.04189
2381.50000    0.04313
2382.00000    0.04185
2382.50000    0.03813
2383.00000    0.03214
2383.50000    0.02409
2384.00000    0.01424
2384.50000    0.00289
2385.00000   -0.00963
2385.50000   -0.02298
2386.00000   -0.03680
2386.50000   -0.05077
2387.00000   -0.06454
2387.50000   -0.07781
2388.00000   -0.09031
2388.50000   -0.10179
2389.00000   -0.11203
2389.50000   -0.12086
2390.00000   -0.12815
2390.50000   -0.13380
2391.00000   -0.13775
2391.50000   -0.13998
2392.00000   -0.14050
2392.50000   -0.13934
2393.00000   -0.13658
2393.50000   -0.13229
2394.00000   -0.12656
2394.50000   -0.11952
2395.00000   -0.11127
2395.50000   -0.10192
2396.00000   -0.09160
2396.50000   -0.08041
2397.00000   -0.06846
2397.50000   -0.05583
2398.00000   -0.04264
2398.50000   -0.02895
2399.00000   -0.01486
2399.50000   -0.00047
2400.00000    0.01413
2400.50000    0.02882
2401.00000    0.04348
2401.50000    0.05797
2402.00000    0.07213
2402.50000    0.08577
2403.00000    0.09871
2403.50000    0.11073
2404.00000    0.12163
2404.50000    0.13120
2405.00000    0.13924
2405.50000    0.14557
2406.00000    0.15004
2406.50000    0.15253
2407.00000    0.15297
2407.50000    0.15135
2408.00000    0.14769
2408.50000    0.14209
2409.00000    0.13469
2409.50000    0.12568
2410.00000    0.11531
2410.50000    0.10384
2411.00000    0.09157
2411.50000    0.07883
2412.00000    0.06592
2412.50000    0.05315
2413.00000    0.04080
2413.50000    0.02913
2414.00000    0.01835
2414.50000    0.00862
2415.00000    0.00007
2415.50000   -0.00725
2416.00000   -0.01332
2416.50000   -0.01817
2417.00000   -0.02188
2417.50000   -0.02455
2418.00000   -0.02632
2418.50000   -0.02733
2419.00000   -0.02776
2419.50000   -0.02775
2420.00000   -0.02745
2420.50000   -0.02699
2421.00000   -0.02649
2421.50000   -0.02604
2422.00000   -0.02569
2422.50000   -0.02549
2423.00000   -0.02545
2423.50000   -0.02556
2424.00000   -0.02580
2424.50000   -0.02613
2425.00000   -0.02653
2425.50000   -0.02694
2426.00000   -0.02734
2426.50000   -0.02771
2427.00000   -0.02803
2427.50000   -0.02831
2428.00000   -0.02856
2428.50000   -0.02882
2429.00000   -0.02914
2429.50000   -0.02956
2430.00000   -0.03015
2430.50000   -0.03097
2431.00000   -0.03207
2431.50000   -0.03351
2432.00000   -0.03532
2432.50000   -0.03753
2433.00000   -0.04014
2433.50000   -0.04314
2434.00000   -0.04650
2434.50000   -0.05017
2435.00000   -0.05409
2435.50000   -0.05819
2436.00000   -0.06239
2436.50000   -0.06659
2437.00000   -0.07071
2437.50000   -0.07466
2438.00000   -0.07837
2438.50000   -0.08177
2439.00000   -0.08479
2439.50000   -0.08740
2440.00000   -0.08957
2440.50000   -0.09127
2441.00000   -0.09251
2441.50000   -0.09330
2442.00000   -0.09366
2442.50000   -0.09362
2443.00000   -0.09321
2443.50000   -0.09250
2444.00000   -0.09153
2444.50000   -0.09035
2445.00000   -0.08901
2445.50000   -0.08756
2446.00000   -0.08605
2446.50000   -0.08450
2447.00000   -0.08295
2447.50000   -0.08140
2448.00000   -0.07983
2448.50000   -0.07822
2449.00000   -0.07652
2449.50000   -0.07466
2450.00000   -0.07254
2450.50000   -0.07005
2451.00000   -0.06708
2451.50000   -0.06348
2452.00000   -0.05911
2452.50000   -0.05386
2453.00000   -0.04758
2453.50000   -0.04020
2454.00000   -0.03162
2454.50000   -0.02182
2455.00000   -0.01079
2455.50000    0.00141
2456.00000    0.01471
2456.50000    0.02896
2457.00000    0.04401
2457.50000    0.05966
2458.00000    0.07570
2458.50000    0.09189
2459.00000    0.10802
2459.50000    0.12387
2460.00000    0.13926
2460.50000    0.15403
2461.00000    0.16806
2461.50000    0.18128
2462.00000    0.19363
2462.50000    0.20510
2463.00000    0.21573
2463.50000    0.22553
2464.00000    0.23455
2464.50000    0.24283
2465.00000    0.25037
2465.50000    0.25716
2466.00000    0.26313
2466.50000    0.26820
2467.00000    0.27221
2467.50000    0.27497
2468.00000    0.27625
2468.50000    0.27582
2469.00000    0.27340
2469.50000    0.26875
2470.00000    0.26164
2470.50000    0.25188
2471.00000    0.23937
2471.50000    0.22405
2472.00000    0.20598
2472.50000    0.18530
2473.00000    0.16226
2473.50000    0.13722
2474.00000    0.11060
2474.50000    0.08295
2475.00000    0.05484
2475.50000    0.02690
2476.00000   -0.00020
2476.50000   -0.02581
2477.00000   -0.04930
2477.50000   -0.07009
2478.00000   -0.08766
2478.50000   -0.10158
2479.00000   -0.11154
2479.50000   -0.11732
2480.00000   -0.11886
2480.50000   -0.11618
2481.00000   -0.10947
2481.50000   -0.09901
2482.00000   -0.08523
2482.50000   -0.06862
2483.00000   -0.04980
2483.50000   -0.02943
2484.00000   -0.00823
2484.50000    0.01302
2485.00000    0.03357
2485.50000    0.05266
2486.00000    0.06956
2486.50000    0.08360
2487.00000    0.09419
2487.50000    0.10082
2488.00000    0.10309
2488.50000    0.10071
2489.00000    0.09353
2489.50000    0.08153
2490.00000    0.06481
2490.50000    0.04362
2491.00000    0.01831
2491.50000   -0.01063
2492.00000   -0.04263
2492.50000   -0.07702
2493.00000   -0.11309
2493.50000   -0.15006
2494.00000   -0.18714
2494.50000   -0.22355
2495.00000   -0.25849
2495.50000   -0.29125
2496.00000   -0.32112
2496.50000   -0.34752
2497.00000   -0.36991
2497.50000   -0.38786
2498.00000   -0.40105
2498.50000   -0.40925
2499.00000   -0.41235
2499.50000   -0.41034
2500.00000   -0.40333
2500.50000   -0.39151
2501.00000   -0.37516
2501.50000   -0.35466
2502.00000   -0.33043
2502.50000   -0.30299
2503.00000   -0.27285
2503.50000   -0.24057
2504.00000   -0.20675
2504.50000   -0.17195
2505.00000   -0.13672
2505.50000   -0.10161
2506.00000   -0.06711
2506.50000   -0.03366
2507.00000   -0.00165
2507.50000    0.02858
2508.00000    0.05677
2508.50000    0.08272
2509.00000    0.10628
2509.50000    0.12735
2510.00000    0.14589
2510.50000    0.16190
2511.00000    0.17540
2511.50000    0.18644
2512.00000    0.19509
2512.50000    0.20141
2513.00000    0.20548
2513.50000    0.20736
2514.00000    0.20713
2514.50000    0.20483
2515.00000    0.20052
2515.50000    0.19427
2516.00000    0.18611
2516.50000    0.17613
2517.00000    0.16439
2517.50000    0.15099
2518.00000    0.13605
2518.50000    0.11970
2519.00000    0.10212
2519.50000    0.08350
2520.00000    0.06405
2520.50000    0.04403
2521.00000    0.02370
2521.50000    0.00333
2522.00000   -0.01677
2522.50000   -0.03631
2523.00000   -0.05499
2523.50000   -0.07251
2524.00000   -0.08858
2524.50000   -0.10292
2525.00000   -0.11528
2525.50000   -0.12541
2526.00000   -0.13309
2526.50000   -0.13814
2527.00000   -0.14040
2527.50000   -0.13974
2528.00000   -0.13609
2528.50000   -0.12940
2529.00000   -0.11967
2529.50000   -0.10695
2530.00000   -0.09136
2530.50000   -0.07304
2531.00000   -0.05220
2531.50000   -0.02911
2532.00000   -0.00406
2532.50000    0.02259
2533.00000    0.05044
2533.50000    0.07907
2534.00000    0.10803
2534.50000    0.13686
2535.00000    0.16508
2535.50000    0.19222
2536.00000    0.21785
2536.50000    0.24152
2537.00000    0.26284
2537.50000    0.28147
2538.00000    0.29709
2538.50000    0.30945
2539.00000    0.31836
2539.50000    0.32369
2540.00000    0.32538
2540.50000    0.32342
2541.00000    0.31788
2541.50000    0.30889
2542.00000    0.29665
2542.50000    0.28138
2543.00000    0.26340
2543.50000    0.24304
2544.00000    0.22067
2544.50000    0.19670
2545.00000    0.17153
2545.50000    0.14560
2546.00000    0.11932
2546.50000    0.09307
2547.00000    0.06721
2547.50000    0.04208
2548.00000    0.01794
2548.50000   -0.00499
2549.00000   -0.02656
2549.50000   -0.04667
2550.00000   -0.06528
2550.50000   -0.08240
2551.00000   -0.09810
2551.50000   -0.11245
2552.00000   -0.12558
2552.50000   -0.13760
2553.00000   -0.14863
2553.50000   -0.15877
2554.00000   -0.16808
2554.50000   -0.17661
2555.00000   -0.18434
2555.50000   -0.19125
2556.00000   -0.19723
2556.50000   -0.20218
2557.00000   -0.20594
2557.50000   -0.20836
2558.00000   -0.20927
2558.50000   -0.20852
2559.00000   -0.20596
2559.50000   -0.20148
2560.00000   -0.19502
2560.50000   -0.18656
2561.00000   -0.17610
2561.50000   -0.16374
2562.00000   -0.14959
2562.50000   -0.13382
2563.00000   -0.11662
2563.50000   -0.09823
2564.00000   -0.07889
2564.50000   -0.05887
2565.00000   -0.03843
2565.50000   -0.01783
2566.00000    0.00266
2566.50000    0.02281
2567.00000    0.04239
2567.50000    0.06120
2568.00000    0.07902
2568.50000    0.09568
2569.00000    0.11102
2569.50000    0.12487
2570.00000    0.13709
2570.50000    0.14754
2571.00000    0.15610
2571.50000    0.16267
2572.00000    0.16713
2572.50000    0.16943
2573.00000    0.16950
2573.50000    0.16731
2574.00000    0.16285
2574.50000    0.15614
2575.00000    0.14724
2575.50000    0.13621
2576.00000    0.12316
2576.50000    0.10822
2577.00000    0.09154
2577.50000    0.07329
2578.00000    0.05366
2578.50000    0.03284
2579.00000    0.01103
2579.50000   -0.01153
2580.00000   -0.03464
2580.50000   -0.05805
2581.00000   -0.08155
2581.50000   -0.10488
2582.00000   -0.12780
2582.50000   -0.15005
2583.00000   -0.17137
2583.50000   -0.19150
2584.00000   -0.21016
2584.50000   -0.22709
2585.00000   -0.24202
2585.50000   -0.25472
2586.00000   -0.26495
2586.50000   -0.27251
2587.00000   -0.27726
2587.50000   -0.27907
2588.00000   -0.27789
2588.50000   -0.27372
2589.00000   -0.26660
2589.50000   -0.25667
2590.00000   -0.24409
2590.50000   -0.22910
2591.00000   -0.21198
2591.50000   -0.19304
2592.00000   -0.17263
2592.50000   -0.15110
2593.00000   -0.12879
2593.50000   -0.10606
2594.00000   -0.08320
2594.50000   -0.06049
2595.00000   -0.03815
2595.50000   -0.01636
2596.00000    0.00477
2596.50000    0.02518
2597.00000    0.04486
2597.50000    0.06383
2598.00000    0.08218
2598.50000    0.09998
2599.00000    0.11734
2599.50000    0.13434
2600.00000    0.15105
2600.50000    0.16750
2601.00000    0.18367
2601.50000    0.19950
2602.00000    0.21483
2602.50000    0.22948
2603.00000    0.24317
2603.50000    0.25558
2604.00000    0.26634
2604.50000    0.27505
2605.00000    0.28129
2605.50000    0.28466
2606.00000    0.28477
2606.50000    0.28129
2607.00000    0.27396
2607.50000    0.26258
2608.00000    0.24709
2608.50000    0.22753
2609.00000    0.20404
2609.50000    0.17690
2610.00000    0.14650
2610.50000    0.11334
2611.00000    0.07800
2611.50000    0.04113
2612.00000    0.00344
2612.50000   -0.03435
2613.00000   -0.07150
2613.50000   -0.10731
2614.00000   -0.14112
2614.50000   -0.17232
2615.00000   -0.20040
2615.50000   -0.22493
2616.00000   -0.24560
2616.50000   -0.26217
2617.00000   -0.27452
2617.50000   -0.28264
2618.00000   -0.28658
2618.50000   -0.28649
2619.00000   -0.28259
2619.50000   -0.27514
2620.00000   -0.26447
2620.50000   -0.25092
2621.00000   -0.23486
2621.50000   -0.21670
2622.00000   -0.19682
2622.50000   -0.17562
2623.00000   -0.15350
2623.50000   -0.13084
2624.00000   -0.10802
2624.50000   -0.08537
2625.00000   -0.06323
2625.50000   -0.04191
2626.00000   -0.02168
2626.50000   -0.00277
2627.00000    0.01460
2627.50000    0.03028
2628.00000    0.04412
2628.50000    0.05604
2629.00000    0.06598
2629.50000    0.07393
2630.00000    0.07989
2630.50000    0.08390
2631.00000    0.08603
2631.50000    0.08635
2632.00000    0.08497
2632.50000    0.08199
2633.00000    0.07754
2633.50000    0.07175
2634.00000    0.06479
2634.50000    0.05682
2635.00000    0.04806
2635.50000    0.03875
2636.00000    0.02915
2636.50000    0.01959
2637.00000    0.01043
2637.50000    0.00209
2638.00000   -0.00497
2638.50000   -0.01028
2639.00000   -0.01330
2639.50000   -0.01351
2640.00000   -0.01039
2640.50000   -0.00342
2641.00000    0.00784
2641.50000    0.02380
2642.00000    0.04477
2642.50000    0.07097
2643.00000    0.10250
2643.50000    0.13937
2644.00000    0.18143
2644.50000    0.22846
2645.00000    0.28012
2645.50000    0.33596
2646.00000    0.39548
2646.50000    0.45813
2647.00000    0.52332
2647.50000    0.59049
2648.00000    0.65908
2648.50000    0.72859
2649.00000    0.79860
2649.50000    0.86878
2650.00000    0.93890
2650.50000    1.00884
2651.00000    1.07862
2651.50000    1.14837
2652.00000    1.21837
2652.50000    1.28897
2653.00000    1.36067
2653.50000    1.43404
2654.00000    1.50976
2654.50000    1.58856
2655.00000    1.67120
2655.50000    1.75852
2656.00000    1.85132
2656.50000    1.95044
2657.00000    2.05664
2657.50000    2.17068
2658.00000    2.29320
2658.50000    2.42480
2659.00000    2.56592
2659.50000    2.71691
2660.00000    2.87797
2660.50000    3.04915
2661.00000    3.23033
2661.50000    3.42126
2662.00000    3.62151
2662.50000    3.83052
2663.00000    4.04758
2663.50000    4.27187
2664.00000    4.50247
2664.50000    4.73840
2665.00000    4.97862
2665.50000    5.22207
2666.00000    5.46769
2666.50000    5.71446
2667.00000    5.96139
2667.50000    6.20754
2668.00000    6.45206
2668.50000    6.69415
2669.00000    6.93306
2669.50000    7.16814
2670.00000    7.39872
2670.50000    7.62422
2671.00000    7.84401
2671.50000    8.05747
2672.00000    8.26398
2672.50000    8.46282
2673.00000    8.65327
2673.50000    8.83454
2674.00000    9.00579
2674.50000    9.16614
2675.00000    9.31471
2675.50000    9.45060
2676.00000    9.57298
2676.50000    9.68104
2677.00000    9.77409
2677.50000    9.85156
2678.00000    9.91305
2678.50000    9.95829
2679.00000    9.98723
2679.50000   10.00000
2680.00000    9.99692
2680.50000    9.97848
2681.00000    9.94534
2681.50000    9.89828
2682.00000    9.83820
2682.50000    9.76605
2683.00000    9.68282
2683.50000    9.58950
2684.00000    9.48704
2684.50000    9.37635
2685.00000    9.25825
2685.50000    9.13348
2686.00000    9.00269
2686.50000    8.86643
2687.00000    8.72515
2687.50000    8.57927
2688.00000    8.42910
2688.50000    8.27496
2689.00000    8.11711
2689.50000    7.95582
2690.00000    7.79134
2690.50000    7.62396
2691.00000    7.45395
2691.50000    7.28161
2692.00000    7.10725
2692.50000    6.93118
2693.00000    6.75368
2693.50000    6.57503
2694.00000    6.39548
2694.50000    6.21524
2695.00000    6.03448
2695.50000    5.85337
2696.00000    5.67201
2696.50000    5.49052
2697.00000    5.30901
2697.50000    5.12762
2698.00000    4.94652
2698.50000    4.76594
2699.00000    4.58617
2699.50000    4.40761
2700.00000    4.23074
2700.50000    4.05610
2701.00000    3.88435
2701.50000    3.71619
2702.00000    3.55236
2702.50000    3.39363
2703.00000    3.24073
2703.50000    3.09436
2704.00000    2.95512
2704.50000    2.82348
2705.00000    2.69981
2705.50000    2.58428
2706.00000    2.47690
2706.50000    2.37749
2707.00000    2.28572
2707.50000    2.20108
2708.00000    2.12293
2708.50000    2.05051
2709.00000    1.98301
2709.50000    1.91955
2710.00000    1.85925
2710.50000    1.80126
2711.00000    1.74477
2711.50000    1.68908
2712.00000    1.63356
2712.50000    1.57770
2713.00000    1.52111
2713.50000    1.46352
2714.00000    1.40478
2714.50000    1.34484
2715.00000    1.28375
2715.50000    1.22161
2716.00000    1.15863
2716.50000    1.09502
2717.00000    1.03107
2717.50000    0.96705
2718.00000    0.90326
2718.50000    0.84001
2719.00000    0.77757
2719.50000    0.71624
2720.00000    0.65629
2720.50000    0.59797
2721.00000    0.54152
2721.50000    0.48718
2722.00000    0.43514
2722.50000    0.38559
2723.00000    0.33871
2723.50000    0.29462
2724.00000    0.25344
2724.50000    0.21525
2725.00000    0.18009
2725.50000    0.14798
2726.00000    0.11888
2726.50000    0.09272
2727.00000    0.06939
2727.50000    0.04875
2728.00000    0.03061
2728.50000    0.01477
2729.00000    0.00101
2729.50000   -0.01093
2730.00000   -0.02128
2730.50000   -0.03029
2731.00000   -0.03819
2731.50000   -0.04521
2732.00000   -0.05152
2732.50000   -0.05729
2733.00000   -0.06265
2733.50000   -0.06769
2734.00000   -0.07245
2734.50000   -0.07697
2735.00000   -0.08123
2735.50000   -0.08520
2736.00000   -0.08884
2736.50000   -0.09207
2737.00000   -0.09485
2737.50000   -0.09711
2738.00000   -0.09881
2738.50000   -0.09992
2739.00000   -0.10044
2739.50000   -0.10039
2740.00000   -0.09981
2740.50000   -0.09878
2741.00000   -0.09738
2741.50000   -0.09572
2742.00000   -0.09391
2742.50000   -0.09207
2743.00000   -0.09030
2743.50000   -0.08870
2744.00000   -0.08732
2744.50000   -0.08622
2745.00000   -0.08539
2745.50000   -0.08480
2746.00000   -0.08438
2746.50000   -0.08403
2747.00000   -0.08362
2747.50000   -0.08299
2748.00000   -0.08198
2748.50000   -0.08041
2749.00000   -0.07812
2749.50000   -0.07496
2750.00000   -0.07081
2750.50000   -0.06556
2751.00000   -0.05918
2751.50000   -0.05165
2752.00000   -0.04300
2752.50000   -0.03331
2753.00000   -0.02270
2753.50000   -0.01132
2754.00000    0.00065
2754.50000    0.01301
2755.00000    0.02554
2755.50000    0.03804
2756.00000    0.05027
2756.50000    0.06204
2757.00000    0.07313
2757.50000    0.08337
2758.00000    0.09259
2758.50000    0.10064
2759.00000    0.10739
2759.50000    0.11273
2760.00000    0.11656
2760.50000    0.11881
2761.00000    0.11941
2761.50000    0.11833
2762.00000    0.11555
2762.50000    0.11108
2763.00000    0.10495
2763.50000    0.09724
2764.00000    0.08804
2764.50000    0.07751
2765.00000    0.06580
2765.50000    0.05312
2766.00000    0.03972
2766.50000    0.02586
2767.00000    0.01180
2767.50000   -0.00215
2768.00000   -0.01571
2768.50000   -0.02862
2769.00000   -0.04064
2769.50000   -0.05154
2770.00000   -0.06116
2770.50000   -0.06938
2771.00000   -0.07613
2771.50000   -0.08141
2772.00000   -0.08525
2772.50000   -0.08773
2773.00000   -0.08898
2773.50000   -0.08914
2774.00000   -0.08839
2774.50000   -0.08689
2775.00000   -0.08482
2775.50000   -0.08232
2776.00000   -0.07952
2776.50000   -0.07650
2777.00000   -0.07331
2777.50000   -0.06996
2778.00000   -0.06643
2778.50000   -0.06266
2779.00000   -0.05855
2779.50000   -0.05401
2780.00000   -0.04893
2780.50000   -0.04319
2781.00000   -0.03673
2781.50000   -0.02947
2782.00000   -0.02140
2782.50000   -0.01255
2783.00000   -0.00298
2783.50000    0.00716
2784.00000    0.01771
2784.50000    0.02843
2785.00000    0.03906
2785.50000    0.04929
2786.00000    0.05882
2786.50000    0.06732
2787.00000    0.07448
2787.50000    0.08001
2788.00000    0.08366
2788.50000    0.08523
2789.00000    0.08456
2789.50000    0.08160
2790.00000    0.07633
2790.50000    0.06882
2791.00000    0.05923
2791.50000    0.04775
2792.00000    0.03466
2792.50000    0.02026
2793.00000    0.00492
2793.50000   -0.01100
2794.00000   -0.02714
2794.50000   -0.04313
2795.00000   -0.05864
2795.50000   -0.07338
2796.00000   -0.08709
2796.50000   -0.09958
2797.00000   -0.11073
2797.50000   -0.12043
2798.00000   -0.12868
2798.50000   -0.13548
2799.00000   -0.14090
2799.50000   -0.14500
2800.00000   -0.14790
2800.50000   -0.14967
2801.00000   -0.15042
2801.50000   -0.15020
2802.00000   -0.14906
2802.50000   -0.14701
2803.00000   -0.14405
2803.50000   -0.14013
2804.00000   -0.13518
2804.50000   -0.12912
2805.00000   -0.12187
2805.50000   -0.11335
2806.00000   -0.10348
2806.50000   -0.09223
2807.00000   -0.07957
2807.50000   -0.06553
2808.00000   -0.05018
2808.50000   -0.03360
2809.00000   -0.01594
2809.50000    0.00264
2810.00000    0.02194
2810.50000    0.04177
2811.00000    0.06188
2811.50000    0.08208
2812.00000    0.10214
2812.50000    0.12185
2813.00000    0.14102
2813.50000    0.15948
2814.00000    0.17705
2814.50000    0.19359
2815.00000    0.20894
2815.50000    0.22296
2816.00000    0.23549
2816.50000    0.24638
2817.00000    0.25545
2817.50000    0.26255
2818.00000    0.26749
2818.50000    0.27009
2819.00000    0.27018
2819.50000    0.26762
2820.00000    0.26229
2820.50000    0.25411
2821.00000    0.24308
2821.50000    0.22924
2822.00000    0.21273
2822.50000    0.19375
2823.00000    0.17259
2823.50000    0.14963
2824.00000    0.12530
2824.50000    0.10008
2825.00000    0.07451
2825.50000    0.04913
2826.00000    0.02446
2826.50000    0.00102
2827.00000   -0.02075
2827.50000   -0.04046
2828.00000   -0.05782
2828.50000   -0.07264
2829.00000   -0.08481
2829.50000   -0.09434
2830.00000   -0.10133
2830.50000   -0.10596
2831.00000   -0.10849
2831.50000   -0.10924
2832.00000   -0.10853
2832.50000   -0.10675
2833.00000   -0.10425
2833.50000   -0.10137
2834.00000   -0.09844
2834.50000   -0.09574
2835.00000   -0.09349
2835.50000   -0.09188
2836.00000   -0.09105
2836.50000   -0.09109
2837.00000   -0.09205
2837.50000   -0.09392
2838.00000   -0.09668
2838.50000   -0.10028
2839.00000   -0.10463
2839.50000   -0.10961
2840.00000   -0.11509
2840.50000   -0.12090
2841.00000   -0.12687
2841.50000   -0.13278
2842.00000   -0.13841
2842.50000   -0.14349
2843.00000   -0.14778
2843.50000   -0.15099
2844.00000   -0.15286
2844.50000   -0.15312
2845.00000   -0.15155
2845.50000   -0.14793
2846.00000   -0.14211
2846.50000   -0.13398
2847.00000   -0.12352
2847.50000   -0.11074
2848.00000   -0.09574
2848.50000   -0.07869
2849.00000   -0.05980
2849.50000   -0.03933
2850.00000   -0.01758
2850.50000    0.00515
2851.00000    0.02855
2851.50000    0.05232
2852.00000    0.07622
2852.50000    0.10003
2853.00000    0.12358
2853.50000    0.14679
2854.00000    0.16960
2854.50000    0.19203
2855.00000    0.21414
2855.50000    0.23602
2856.00000    0.25779
2856.50000    0.27956
2857.00000    0.30143
2857.50000    0.32348
2858.00000    0.34574
2858.50000    0.36819
2859.00000    0.39073
2859.50000    0.41323
2860.00000    0.43547
2860.50000    0.45718
2861.00000    0.47803
2861.50000    0.49766
2862.00000    0.51569
2862.50000    0.53173
2863.00000    0.54540
2863.50000    0.55635
2864.00000    0.56425
2864.50000    0.56884
2865.00000    0.56992
2865.50000    0.56736
2866.00000    0.56108
2866.50000    0.55109
2867.00000    0.53745
2867.50000    0.52028
2868.00000    0.49974
2868.50000    0.47604
2869.00000    0.44940
2869.50000    0.42007
2870.00000    0.38831
2870.50000    0.35438
2871.00000    0.31854
2871.50000    0.28103
2872.00000    0.24212
2872.50000    0.20204
2873.00000    0.16106
2873.50000    0.11944
2874.00000    0.07749
2874.50000    0.03550
2875.00000   -0.00616
2875.50000   -0.04712
2876.00000   -0.08695
2876.50000   -0.12521
2877.00000   -0.16140
2877.50000   -0.19504
2878.00000   -0.22560
2878.50000   -0.25260
2879.00000   -0.27556
2879.50000   -0.29404
2880.00000   -0.30768
2880.50000   -0.31618
2881.00000   -0.31933
2881.50000   -0.31703
2882.00000   -0.30926
2882.50000   -0.29614
2883.00000   -0.27785
2883.50000   -0.25468
2884.00000   -0.22698
2884.50000   -0.19516
2885.00000   -0.15966
2885.50000   -0.12094
2886.00000   -0.07944
2886.50000   -0.03555
2887.00000    0.01034
2887.50000    0.05796
2888.00000    0.10707
2888.50000    0.15752
2889.00000    0.20926
2889.50000    0.26227
2890.00000    0.31662
2890.50000    0.37243
2891.00000    0.42984
2891.50000    0.48900
2892.00000    0.55008
2892.50000    0.61321
2893.00000    0.67849
2893.50000    0.74598
2894.00000    0.81569
2894.50000    0.88754
2895.00000    0.96143
2895.50000    1.03717
2896.00000    1.11456
2896.50000    1.19332
2897.00000    1.27320
2897.50000    1.35392
2898.00000    1.43522
2898.50000    1.51688
2899.00000    1.59872
2899.50000    1.68062
