1200.50000   -0.10745
1201.00000   -0.10330
1201.50000   -0.09893
1202.00000   -0.09415
1202.50000   -0.08874
1203.00000   -0.08247
1203.50000   -0.07511
1204.00000   -0.06646
1204.50000   -0.05636
1205.00000   -0.04469
1205.50000   -0.03136
1206.00000   -0.01639
1206.50000    0.00017
1207.00000    0.01818
1207.50000    0.03744
1208.00000    0.05769
1208.50000    0.07861
1209.00000    0.09982
1209.50000    0.12092
1210.00000    0.14149
1210.50000    0.16108
1211.00000    0.17927
1211.50000    0.19563
1212.00000    0.20979
1212.50000    0.22142
1213.00000    0.23024
1213.50000    0.23602
1214.00000    0.23864
1214.50000    0.23800
1215.00000    0.23413
1215.50000    0.22709
1216.00000    0.21703
1216.50000    0.20416
1217.00000    0.18873
1217.50000    0.17104
1218.00000    0.15144
1218.50000    0.13029
1219.00000    0.10794
1219.50000    0.08476
1220.00000    0.06110
1220.50000    0.03729
1221.00000    0.01361
1221.50000   -0.00968
1222.00000   -0.03236
1222.50000   -0.05425
1223.00000   -0.07524
1223.50000   -0.09524
1224.00000   -0.11418
1224.50000   -0.13206
1225.00000   -0.14888
1225.50000   -0.16467
1226.00000   -0.17947
1226.50000   -0.19330
1227.00000   -0.20622
1227.50000   -0.21823
1228.00000   -0.22936
1228.50000   -0.23958
1229.00000   -0.24885
1229.50000   -0.25712
1230.00000   -0.26431
1230.50000   -0.27031
1231.00000   -0.27501
1231.50000   -0.27826
1232.00000   -0.27994
1232.50000   -0.27991
1233.00000   -0.27805
1233.50000   -0.27423
1234.00000   -0.26838
1234.50000   -0.26044
1235.00000   -0.25037
1235.50000   -0.23819
1236.00000   -0.22396
1236.50000   -0.20778
1237.00000   -0.18977
1237.50000   -0.17012
1238.00000   -0.14903
1238.50000   -0.12675
1239.00000   -0.10354
1239.50000   -0.07968
1240.00000   -0.05548
1240.50000   -0.03124
1241.00000   -0.00726
1241.50000    0.01618
1242.00000    0.03878
1242.50000    0.06030
1243.00000    0.08050
1243.50000    0.09917
1244.00000    0.11614
1244.50000    0.13127
1245.00000    0.14443
1245.50000    0.15554
1246.00000    0.16454
1246.50000    0.17139
1247.00000    0.17610
1247.50000    0.17866
1248.00000    0.17910
1248.50000    0.17748
1249.00000    0.17385
1249.50000    0.16829
1250.00000    0.16088
1250.50000    0.15172
1251.00000    0.14094
1251.50000    0.12867
1252.00000    0.11504
1252.50000    0.10024
1253.00000    0.08445
1253.50000    0.06786
1254.00000    0.05071
1254.50000    0.03325
1255.00000    0.01573
1255.50000   -0.00157
1256.00000   -0.01837
1256.50000   -0.03436
1257.00000   -0.04927
1257.50000   -0.06281
1258.00000   -0.07471
1258.50000   -0.08473
1259.00000   -0.09264
1259.50000   -0.09827
1260.00000   -0.10149
1260.50000   -0.10221
1261.00000   -0.10039
1261.50000   -0.09607
1262.00000   -0.08931
1262.50000   -0.08025
1263.00000   -0.06907
1263.50000   -0.05599
1264.00000   -0.04127
1264.50000   -0.02521
1265.00000   -0.00812
1265.50000    0.00968
1266.00000    0.02785
1266.50000    0.04608
1267.00000    0.06405
1267.50000    0.08148
1268.00000    0.09811
1268.50000    0.11371
1269.00000    0.12809
1269.50000    0.14110
1270.00000    0.15261
1270.50000    0.16253
1271.00000    0.17081
1271.50000    0.17739
1272.00000    0.18227
1272.50000    0.18543
1273.00000    0.18690
1273.50000    0.18667
1274.00000    0.18478
1274.50000    0.18125
1275.00000    0.17611
1275.50000    0.16940
1276.00000    0.16115
1276.50000    0.15144
1277.00000    0.14033
1277.50000    0.12792
1278.00000    0.11433
1278.50000    0.09971
1279.00000    0.08424
1279.50000    0.06813
1280.00000    0.05165
1280.50000    0.03505
1281.00000    0.01865
1281.50000    0.00277
1282.00000   -0.01225
1282.50000   -0.02608
1283.00000   -0.03840
1283.50000   -0.04888
1284.00000   -0.05727
1284.50000   -0.06333
1285.00000   -0.06689
1285.50000   -0.06784
1286.00000   -0.06614
1286.50000   -0.06183
1287.00000   -0.05503
1287.50000   -0.04592
1288.00000   -0.03476
1288.50000   -0.02189
1289.00000   -0.00766
1289.50000    0.00750
1290.00000    0.02315
1290.50000    0.03884
1291.00000    0.05410
1291.50000    0.06850
1292.00000    0.08163
1292.50000    0.09313
1293.00000    0.10268
1293.50000    0.11005
1294.00000    0.11505
1294.50000    0.11759
1295.00000    0.11764
1295.50000    0.11525
1296.00000    0.11053
1296.50000    0.10365
1297.00000    0.09484
1297.50000    0.08437
1298.00000    0.07255
1298.50000    0.05969
1299.00000    0.04613
1299.50000    0.03222
1300.00000    0.01827
1300.50000    0.00461
1301.00000   -0.00847
1301.50000   -0.02072
1302.00000   -0.03192
1302.50000   -0.04188
1303.00000   -0.05046
1303.50000   -0.05756
1304.00000   -0.06312
1304.50000   -0.06712
1305.00000   -0.06959
1305.50000   -0.07059
1306.00000   -0.07020
1306.50000   -0.06854
1307.00000   -0.06578
1307.50000   -0.06209
1308.00000   -0.05765
1308.50000   -0.05269
1309.00000   -0.04742
1309.50000   -0.04208
1310.00000   -0.03691
1310.50000   -0.03213
1311.00000   -0.02798
1311.50000   -0.02466
1312.00000   -0.02238
1312.50000   -0.02130
1313.00000   -0.02156
1313.50000   -0.02328
1314.00000   -0.02653
1314.50000   -0.03135
1315.00000   -0.03771
1315.50000   -0.04558
1316.00000   -0.05484
1316.50000   -0.06537
1317.00000   -0.07698
1317.50000   -0.08947
1318.00000   -0.10257
1318.50000   -0.11603
1319.00000   -0.12957
1319.50000   -0.14287
1320.00000   -0.15566
1320.50000   -0.16764
1321.00000   -0.17856
1321.50000   -0.18816
1322.00000   -0.19624
1322.50000   -0.20264
1323.00000   -0.20723
1323.50000   -0.20993
1324.00000   -0.21072
1324.50000   -0.20962
1325.00000   -0.20672
1325.50000   -0.20212
1326.00000   -0.19598
1326.50000   -0.18851
1327.00000   -0.17993
1327.50000   -0.17048
1328.00000   -0.16042
1328.50000   -0.15001
1329.00000   -0.13950
1329.50000   -0.12912
1330.00000   -0.11909
1330.50000   -0.10959
1331.00000   -0.10077
1331.50000   -0.09274
1332.00000   -0.08558
1332.50000   -0.07929
1333.00000   -0.07388
1333.50000   -0.06929
1334.00000   -0.06543
1334.50000   -0.06218
1335.00000   -0.05941
1335.50000   -0.05695
1336.00000   -0.05464
1336.50000   -0.05232
1337.00000   -0.04982
1337.50000   -0.04699
1338.00000   -0.04372
1338.50000   -0.03991
1339.00000   -0.03548
1339.50000   -0.03039
1340.00000   -0.02465
1340.50000   -0.01827
1341.00000   -0.01131
1341.50000   -0.00384
1342.00000    0.00403
1342.50000    0.01219
1343.00000    0.02052
1343.50000    0.02889
1344.00000    0.03720
1344.50000    0.04533
1345.00000    0.05321
1345.50000    0.06075
1346.00000    0.06794
1346.50000    0.07476
1347.00000    0.08121
1347.50000    0.08736
1348.00000    0.09327
1348.50000    0.09902
1349.00000    0.10470
1349.50000    0.11042
1350.00000    0.11628
1350.50000    0.12235
1351.00000    0.12873
1351.50000    0.13545
1352.00000    0.14252
1352.50000    0.14995
1353.00000    0.15768
1353.50000    0.16563
1354.00000    0.17368
1354.50000    0.18168
1355.00000    0.18946
1355.50000    0.19684
1356.00000    0.20359
1356.50000    0.20953
1357.00000    0.21444
1357.50000    0.21816
1358.00000    0.22051
1358.50000    0.22137
1359.00000    0.22065
1359.50000    0.21829
1360.00000    0.21430
1360.50000    0.20871
1361.00000    0.20159
1361.50000    0.19306
1362.00000    0.18326
1362.50000    0.17238
1363.00000    0.16060
1363.50000    0.14812
1364.00000    0.13516
1364.50000    0.12190
1365.00000    0.10854
1365.50000    0.09522
1366.00000    0.08209
1366.50000    0.06925
1367.00000    0.05677
1367.50000    0.04470
1368.00000    0.03303
1368.50000    0.02176
1369.00000    0.01085
1369.50000    0.00024
1370.00000   -0.01014
1370.50000   -0.02036
1371.00000   -0.03049
1371.50000   -0.04059
1372.00000   -0.05071
1372.50000   -0.06087
1373.00000   -0.07108
1373.50000   -0.08132
1374.00000   -0.09153
1374.50000   -0.10165
1375.00000   -0.11157
1375.50000   -0.12116
1376.00000   -0.13028
1376.50000   -0.13878
1377.00000   -0.14649
1377.50000   -0.15323
1378.00000   -0.15885
1378.50000   -0.16319
1379.00000   -0.16609
1379.50000   -0.16744
1380.00000   -0.16713
1380.50000   -0.16508
1381.00000   -0.16126
1381.50000   -0.15565
1382.00000   -0.14828
1382.50000   -0.13921
1383.00000   -0.12854
1383.50000   -0.11641
1384.00000   -0.10298
1384.50000   -0.08844
1385.00000   -0.07301
1385.50000   -0.05694
1386.00000   -0.04047
1386.50000   -0.02386
1387.00000   -0.00738
1387.50000    0.00871
1388.00000    0.02417
1388.50000    0.03876
1389.00000    0.05228
1389.50000    0.06455
1390.00000    0.07540
1390.50000    0.08474
1391.00000    0.09249
1391.50000    0.09859
1392.00000    0.10306
1392.50000    0.10593
1393.00000    0.10726
1393.50000    0.10716
1394.00000    0.10575
1394.50000    0.10318
1395.00000    0.09959
1395.50000    0.09515
1396.00000    0.09004
1396.50000    0.08440
1397.00000    0.07840
1397.50000    0.07218
1398.00000    0.06588
1398.50000    0.05962
1399.00000    0.05350
1399.50000    0.04762
1400.00000    0.04206
1400.50000    0.03690
1401.00000    0.03220
1401.50000    0.02802
1402.00000    0.02443
1402.50000    0.02150
1403.00000    0.01929
1403.50000    0.01786
1404.00000    0.01729
1404.50000    0.01763
1405.00000    0.01895
1405.50000    0.02129
1406.00000    0.02469
1406.50000    0.02916
1407.00000    0.03467
1407.50000    0.04118
1408.00000    0.04861
1408.50000    0.05683
1409.00000    0.06567
1409.50000    0.07494
1410.00000    0.08437
1410.50000    0.09370
1411.00000    0.10261
1411.50000    0.11077
1412.00000    0.11786
1412.50000    0.12352
1413.00000    0.12745
1413.50000    0.12935
1414.00000    0.12897
1414.50000    0.12613
1415.00000    0.12068
1415.50000    0.11257
1416.00000    0.10179
1416.50000    0.08845
1417.00000    0.07270
1417.50000    0.05478
1418.00000    0.03499
1418.50000    0.01370
1419.00000   -0.00869
1419.50000   -0.03174
1420.00000   -0.05499
1420.50000   -0.07799
1421.00000   -0.10030
1421.50000   -0.12151
1422.00000   -0.14125
1422.50000   -0.15922
1423.00000   -0.17518
1423.50000   -0.18894
1424.00000   -0.20042
1424.50000   -0.20960
1425.00000   -0.21652
1425.50000   -0.22130
1426.00000   -0.22411
1426.50000   -0.22518
1427.00000   -0.22476
1427.50000   -0.22315
1428.00000   -0.22063
1428.50000   -0.21750
1429.00000   -0.21402
1429.50000   -0.21046
1430.00000   -0.20702
1430.50000   -0.20387
1431.00000   -0.20114
1431.50000   -0.19890
1432.00000   -0.19715
1432.50000   -0.19588
1433.00000   -0.19499
1433.50000   -0.19439
1434.00000   -0.19391
1434.50000   -0.19339
1435.00000   -0.19264
1435.50000   -0.19147
1436.00000   -0.18969
1436.50000   -0.18712
1437.00000   -0.18361
1437.50000   -0.17900
1438.00000   -0.17321
1438.50000   -0.16615
1439.00000   -0.15778
1439.50000   -0.14811
1440.00000   -0.13717
1440.50000   -0.12502
1441.00000   -0.11176
1441.50000   -0.09751
1442.00000   -0.08242
1442.50000   -0.06666
1443.00000   -0.05039
1443.50000   -0.03380
1444.00000   -0.01708
1444.50000   -0.00041
1445.00000    0.01603
1445.50000    0.03208
1446.00000    0.04758
1446.50000    0.06239
1447.00000    0.07640
1447.50000    0.08951
1448.00000    0.10164
1448.50000    0.11274
1449.00000    0.12278
1449.50000    0.13177
1450.00000    0.13971
1450.50000    0.14664
1451.00000    0.15263
1451.50000    0.15774
1452.00000    0.16206
1452.50000    0.16569
1453.00000    0.16872
1453.50000    0.17125
1454.00000    0.17337
1454.50000    0.17518
1455.00000    0.17675
1455.50000    0.17813
1456.00000    0.17936
1456.50000    0.18046
1457.00000    0.18141
1457.50000    0.18220
1458.00000    0.18275
1458.50000    0.18301
1459.00000    0.18285
1459.50000    0.18219
1460.00000    0.18088
1460.50000    0.17881
1461.00000    0.17583
1461.50000    0.17184
1462.00000    0.16672
1462.50000    0.16039
1463.00000    0.15278
1463.50000    0.14386
1464.00000    0.13363
1464.50000    0.12214
1465.00000    0.10944
1465.50000    0.09567
1466.00000    0.08096
1466.50000    0.06549
1467.00000    0.04948
1467.50000    0.03317
1468.00000    0.01680
1468.50000    0.00064
1469.00000   -0.01503
1469.50000   -0.02996
1470.00000   -0.04386
1470.50000   -0.05652
1471.00000   -0.06769
1471.50000   -0.07718
1472.00000   -0.08482
1472.50000   -0.09050
1473.00000   -0.09410
1473.50000   -0.09557
1474.00000   -0.09490
1474.50000   -0.09211
1475.00000   -0.08726
1475.50000   -0.08045
1476.00000   -0.07180
1476.50000   -0.06151
1477.00000   -0.04975
1477.50000   -0.03677
1478.00000   -0.02282
1478.50000   -0.00816
1479.00000    0.00689
1479.50000    0.02205
1480.00000    0.03699
1480.50000    0.05139
1481.00000    0.06496
1481.50000    0.07738
1482.00000    0.08836
1482.50000    0.09766
1483.00000    0.10503
1483.50000    0.11028
1484.00000    0.11326
1484.50000    0.11385
1485.00000    0.11202
1485.50000    0.10776
1486.00000    0.10112
1486.50000    0.09223
1487.00000    0.08126
1487.50000    0.06844
1488.00000    0.05404
1488.50000    0.03838
1489.00000    0.02182
1489.50000    0.00473
1490.00000   -0.01248
1490.50000   -0.02943
1491.00000   -0.04572
1491.50000   -0.06099
1492.00000   -0.07490
1492.50000   -0.08717
1493.00000   -0.09754
1493.50000   -0.10585
1494.00000   -0.11196
1494.50000   -0.11585
1495.00000   -0.11751
1495.50000   -0.11703
1496.00000   -0.11456
1496.50000   -0.11030
1497.00000   -0.10447
1497.50000   -0.09737
1498.00000   -0.08930
1498.50000   -0.08057
1499.00000   -0.07149
1499.50000   -0.06236
1500.00000   -0.05347
1500.50000   -0.04505
1501.00000   -0.03730
1501.50000   -0.03036
1502.00000   -0.02432
1502.50000   -0.01922
1503.00000   -0.01505
1503.50000   -0.01171
1504.00000   -0.00911
1504.50000   -0.00709
1505.00000   -0.00545
1505.50000   -0.00401
1506.00000   -0.00256
1506.50000   -0.00089
1507.00000    0.00118
1507.50000    0.00381
1508.00000    0.00715
1508.50000    0.01126
1509.00000    0.01621
1509.50000    0.02200
1510.00000    0.02859
1510.50000    0.03588
1511.00000    0.04378
1511.50000    0.05213
1512.00000    0.06075
1512.50000    0.06949
1513.00000    0.07815
1513.50000    0.08658
1514.00000    0.09463
1514.50000    0.10216
1515.00000    0.10908
1515.50000    0.11534
1516.00000    0.12089
1516.50000    0.12575
1517.00000    0.12994
1517.50000    0.13351
1518.00000    0.13653
1518.50000    0.13907
1519.00000    0.14121
1519.50000    0.14300
1520.00000    0.14448
1520.50000    0.14567
1521.00000    0.14653
1521.50000    0.14701
1522.00000    0.14701
1522.50000    0.14640
1523.00000    0.14502
1523.50000    0.14266
1524.00000    0.13913
1524.50000    0.13422
1525.00000    0.12771
1525.50000    0.11942
1526.00000    0.10918
1526.50000    0.09687
1527.00000    0.08242
1527.50000    0.06581
1528.00000    0.04707
1528.50000    0.02632
1529.00000    0.00371
1529.50000   -0.02052
1530.00000   -0.04611
1530.50000   -0.07271
1531.00000   -0.09996
1531.50000   -0.12747
1532.00000   -0.15482
1532.50000   -0.18158
1533.00000   -0.20733
1533.50000   -0.23168
1534.00000   -0.25425
1534.50000   -0.27468
1535.00000   -0.29268
1535.50000   -0.30797
1536.00000   -0.32033
1536.50000   -0.32960
1537.00000   -0.33566
1537.50000   -0.33844
1538.00000   -0.33791
1538.50000   -0.33411
1539.00000   -0.32710
1539.50000   -0.31699
1540.00000   -0.30393
1540.50000   -0.28811
1541.00000   -0.26974
1541.50000   -0.24907
1542.00000   -0.22636
1542.50000   -0.20190
1543.00000   -0.17597
1543.50000   -0.14888
1544.00000   -0.12093
1544.50000   -0.09240
1545.00000   -0.06357
1545.50000   -0.03468
1546.00000   -0.00596
1546.50000    0.02240
1547.00000    0.05027
1547.50000    0.07754
1548.00000    0.10415
1548.50000    0.13011
1549.00000    0.15543
1549.50000    0.18020
1550.00000    0.20451
1550.50000    0.22850
1551.00000    0.25231
1551.50000    0.27609
1552.00000    0.29999
1552.50000    0.32414
1553.00000    0.34865
1553.50000    0.37359
1554.00000    0.39900
1554.50000    0.42487
1555.00000    0.45115
1555.50000    0.47774
1556.00000    0.50450
1556.50000    0.53127
1557.00000    0.55785
1557.50000    0.58405
1558.00000    0.60966
1558.50000    0.63449
1559.00000    0.65839
1559.50000    0.68122
1560.00000    0.70290
1560.50000    0.72339
1561.00000    0.74273
1561.50000    0.76099
1562.00000    0.77832
1562.50000    0.79493
1563.00000    0.81105
1563.50000    0.82699
1564.00000    0.84308
1564.50000    0.85964
1565.00000    0.87705
1565.50000    0.89566
1566.00000    0.91581
1566.50000    0.93782
1567.00000    0.96198
1567.50000    0.98857
1568.00000    1.01781
1568.50000    1.04988
1569.00000    1.08496
1569.50000    1.12317
1570.00000    1.16462
1570.50000    1.20939
1571.00000    1.25756
1571.50000    1.30918
1572.00000    1.36432
1572.50000    1.42303
1573.00000    1.48536
1573.50000    1.55137
1574.00000    1.62111
1574.50000    1.69463
1575.00000    1.77197
1575.50000    1.85315
1576.00000    1.93814
1576.50000    2.02690
1577.00000    2.11932
1577.50000    2.21526
1578.00000    2.31447
1578.50000    2.41667
1579.00000    2.52148
1579.50000    2.62844
1580.00000    2.73701
1580.50000    2.84659
1581.00000    2.95647
1581.50000    3.06591
1582.00000    3.17410
1582.50000    3.28018
1583.00000    3.38326
1583.50000    3.48244
1584.00000    3.57682
1584.50000    3.66551
1585.00000    3.74764
1585.50000    3.82240
1586.00000    3.88903
1586.50000    3.94685
1587.00000    3.99523
1587.50000    4.03367
1588.00000    4.06173
1588.50000    4.07909
1589.00000    4.08552
1589.50000    4.08090
1590.00000    4.06520
1590.50000    4.03847
1591.00000    4.00088
1591.50000    3.95266
1592.00000    3.89411
1592.50000    3.82563
1593.00000    3.74767
1593.50000    3.66074
1594.00000    3.56540
1594.50000    3.46228
1595.00000    3.35205
1595.50000    3.23541
1596.00000    3.11312
1596.50000    2.98594
1597.00000    2.85470
1597.50000    2.72022
1598.00000    2.58336
1598.50000    2.44499
1599.00000    2.30596
1599.50000    2.16715
1600.00000    2.02941
1600.50000    1.89356
1601.00000    1.76041
1601.50000    1.63071
1602.00000    1.50515
1602.50000    1.38437
1603.00000    1.26892
1603.50000    1.15929
1604.00000    1.05588
1604.50000    0.95898
1605.00000    0.86881
1605.50000    0.78549
1606.00000    0.70904
1606.50000    0.63941
1607.00000    0.57646
1607.50000    0.51998
1608.00000    0.46971
1608.50000    0.42533
1609.00000    0.38649
1609.50000    0.35280
1610.00000    0.32387
1610.50000    0.29930
1611.00000    0.27870
1611.50000    0.26169
1612.00000    0.24791
1612.50000    0.23701
1613.00000    0.22869
1613.50000    0.22265
1614.00000    0.21862
1614.50000    0.21635
1615.00000    0.21561
1615.50000    0.21616
1616.00000    0.21778
1616.50000    0.22025
1617.00000    0.22334
1617.50000    0.22680
1618.00000    0.23041
1618.50000    0.23390
1619.00000    0.23701
1619.50000    0.23948
1620.00000    0.24106
1620.50000    0.24150
1621.00000    0.24056
1621.50000    0.23802
1622.00000    0.23372
1622.50000    0.22751
1623.00000    0.21931
1623.50000    0.20908
1624.00000    0.19683
1624.50000    0.18264
1625.00000    0.16664
1625.50000    0.14901
1626.00000    0.12997
1626.50000    0.10979
1627.00000    0.08876
1627.50000    0.06719
1628.00000    0.04538
1628.50000    0.02364
1629.00000    0.00227
1629.50000   -0.01849
1630.00000   -0.03841
1630.50000   -0.05733
1631.00000   -0.07513
1631.50000   -0.09173
1632.00000   -0.10713
1632.50000   -0.12136
1633.00000   -0.13451
1633.50000   -0.14669
1634.00000   -0.15804
1634.50000   -0.16871
1635.00000   -0.17887
1635.50000   -0.18863
1636.00000   -0.19812
1636.50000   -0.20740
1637.00000   -0.21650
1637.50000   -0.22540
1638.00000   -0.23402
1638.50000   -0.24223
1639.00000   -0.24985
1639.50000   -0.25666
1640.00000   -0.26241
1640.50000   -0.26682
1641.00000   -0.26963
1641.50000   -0.27057
1642.00000   -0.26940
1642.50000   -0.26593
1643.00000   -0.26002
1643.50000   -0.25159
1644.00000   -0.24063
1644.50000   -0.22724
1645.00000   -0.21155
1645.50000   -0.19379
1646.00000   -0.17428
1646.50000   -0.15337
1647.00000   -0.13147
1647.50000   -0.10902
1648.00000   -0.08646
1648.50000   -0.06423
1649.00000   -0.04278
1649.50000   -0.02247
1650.00000   -0.00364
1650.50000    0.01343
1651.00000    0.02854
1651.50000    0.04158
1652.00000    0.05250
1652.50000    0.06131
1653.00000    0.06812
1653.50000    0.07308
1654.00000    0.07640
1654.50000    0.07832
1655.00000    0.07911
1655.50000    0.07904
1656.00000    0.07841
1656.50000    0.07747
1657.00000    0.07648
1657.50000    0.07563
1658.00000    0.07509
1658.50000    0.07501
1659.00000    0.07544
1659.50000    0.07644
1660.00000    0.07800
1660.50000    0.08006
1661.00000    0.08255
1661.50000    0.08537
1662.00000    0.08837
1662.50000    0.09142
1663.00000    0.09436
1663.50000    0.09704
1664.00000    0.09929
1664.50000    0.10096
1665.00000    0.10190
1665.50000    0.10200
1666.00000    0.10111
1666.50000    0.09916
1667.00000    0.09606
1667.50000    0.09175
1668.00000    0.08620
1668.50000    0.07940
1669.00000    0.07137
1669.50000    0.06217
1670.00000    0.05186
1670.50000    0.04057
1671.00000    0.02842
1671.50000    0.01560
1672.00000    0.00231
1672.50000   -0.01124
1673.00000   -0.02479
1673.50000   -0.03810
1674.00000   -0.05087
1674.50000   -0.06286
1675.00000   -0.07380
1675.50000   -0.08343
1676.00000   -0.09154
1676.50000   -0.09793
1677.00000   -0.10246
1677.50000   -0.10500
1678.00000   -0.10551
1678.50000   -0.10397
1679.00000   -0.10042
1679.50000   -0.09497
1680.00000   -0.08774
1680.50000   -0.07894
1681.00000   -0.06879
1681.50000   -0.05754
1682.00000   -0.04547
1682.50000   -0.03288
1683.00000   -0.02007
1683.50000   -0.00732
1684.00000    0.00507
1684.50000    0.01684
1685.00000    0.02775
1685.50000    0.03760
1686.00000    0.04619
1686.50000    0.05339
1687.00000    0.05908
1687.50000    0.06317
1688.00000    0.06562
1688.50000    0.06641
1689.00000    0.06554
1689.50000    0.06305
1690.00000    0.05898
1690.50000    0.05341
1691.00000    0.04644
1691.50000    0.03816
1692.00000    0.02870
1692.50000    0.01821
1693.00000    0.00684
1693.50000   -0.00524
1694.00000   -0.01785
1694.50000   -0.03080
1695.00000   -0.04388
1695.50000   -0.05688
1696.00000   -0.06958
1696.50000   -0.08176
1697.00000   -0.09321
1697.50000   -0.10372
1698.00000   -0.11309
1698.50000   -0.12115
1699.00000   -0.12773
1699.50000   -0.13270
1700.00000   -0.13595
1700.50000   -0.13741
1701.00000   -0.13702
1701.50000   -0.13476
1702.00000   -0.13064
1702.50000   -0.12466
1703.00000   -0.11688
1703.50000   -0.10735
1704.00000   -0.09613
1704.50000   -0.08329
1705.00000   -0.06888
1705.50000   -0.05298
1706.00000   -0.03562
1706.50000   -0.01686
1707.00000    0.00326
1707.50000    0.02473
1708.00000    0.04750
1708.50000    0.07156
1709.00000    0.09687
1709.50000    0.12337
1710.00000    0.15102
1710.50000    0.17970
1711.00000    0.20931
1711.50000    0.23969
1712.00000    0.27065
1712.50000    0.30197
1713.00000    0.33338
1713.50000    0.36460
1714.00000    0.39532
1714.50000    0.42520
1715.00000    0.45390
1715.50000    0.48108
1716.00000    0.50641
1716.50000    0.52956
1717.00000    0.55026
1717.50000    0.56823
1718.00000    0.58327
1718.50000    0.59521
1719.00000    0.60393
1719.50000    0.60935
1720.00000    0.61147
1720.50000    0.61030
1721.00000    0.60592
1721.50000    0.59844
1722.00000    0.58803
1722.50000    0.57484
1723.00000    0.55909
1723.50000    0.54099
1724.00000    0.52078
1724.50000    0.49868
1725.00000    0.47493
1725.50000    0.44976
1726.00000    0.42339
1726.50000    0.39605
1727.00000    0.36794
1727.50000    0.33926
1728.00000    0.31018
1728.50000    0.28089
1729.00000    0.25154
1729.50000    0.22228
1730.00000    0.19325
1730.50000    0.16455
1731.00000    0.13632
1731.50000    0.10864
1732.00000    0.08160
1732.50000    0.05529
1733.00000    0.02979
1733.50000    0.00517
1734.00000   -0.01849
1734.50000   -0.04112
1735.00000   -0.06263
1735.50000   -0.08294
1736.00000   -0.10193
1736.50000   -0.11949
1737.00000   -0.13549
1737.50000   -0.14978
1738.00000   -0.16220
1738.50000   -0.17260
1739.00000   -0.18080
1739.50000   -0.18663
1740.00000   -0.18995
1740.50000   -0.19061
1741.00000   -0.18852
1741.50000   -0.18361
1742.00000   -0.17584
1742.50000   -0.16525
1743.00000   -0.15192
1743.50000   -0.13600
1744.00000   -0.11768
1744.50000   -0.09723
1745.00000   -0.07497
1745.50000   -0.05126
1746.00000   -0.02652
1746.50000   -0.00116
1747.00000    0.02436
1747.50000    0.04959
1748.00000    0.07411
1748.50000    0.09751
1749.00000    0.11942
1749.50000    0.13952
1750.00000    0.15756
1750.50000    0.17333
1751.00000    0.18671
1751.50000    0.19765
1752.00000    0.20614
1752.50000    0.21224
1753.00000    0.21607
1753.50000    0.21776
1754.00000    0.21749
1754.50000    0.21545
1755.00000    0.21183
1755.50000    0.20680
1756.00000    0.20054
1756.50000    0.19319
1757.00000    0.18486
1757.50000    0.17564
1758.00000    0.16558
1758.50000    0.15469
1759.00000    0.14299
1759.50000    0.13043
1760.00000    0.11698
1760.50000    0.10260
1761.00000    0.08723
1761.50000    0.07085
1762.00000    0.05343
1762.50000    0.03498
1763.00000    0.01555
1763.50000   -0.00479
1764.00000   -0.02594
1764.50000   -0.04773
1765.00000   -0.06997
1765.50000   -0.09244
1766.00000   -0.11488
1766.50000   -0.13699
1767.00000   -0.15847
1767.50000   -0.17898
1768.00000   -0.19820
1768.50000   -0.21579
1769.00000   -0.23142
1769.50000   -0.24480
1770.00000   -0.25564
1770.50000   -0.26370
1771.00000   -0.26876
1771.50000   -0.27066
1772.00000   -0.26928
1772.50000   -0.26458
1773.00000   -0.25654
1773.50000   -0.24523
1774.00000   -0.23077
1774.50000   -0.21333
1775.00000   -0.19316
1775.50000   -0.17054
1776.00000   -0.14581
1776.50000   -0.11935
1777.00000   -0.09158
1777.50000   -0.06293
1778.00000   -0.03387
1778.50000   -0.00484
1779.00000    0.02369
1779.50000    0.05130
1780.00000    0.07756
1780.50000    0.10212
1781.00000    0.12464
1781.50000    0.14486
1782.00000    0.16257
1782.50000    0.17762
1783.00000    0.18994
1783.50000    0.19950
1784.00000    0.20637
1784.50000    0.21062
1785.00000    0.21244
1785.50000    0.21200
1786.00000    0.20953
1786.50000    0.20530
1787.00000    0.19955
1787.50000    0.19255
1788.00000    0.18455
1788.50000    0.17577
1789.00000    0.16643
1789.50000    0.15668
1790.00000    0.14667
1790.50000    0.13648
1791.00000    0.12619
1791.50000    0.11580
1792.00000    0.10532
1792.50000    0.09474
1793.00000    0.08401
1793.50000    0.07311
1794.00000    0.06202
1794.50000    0.05071
1795.00000    0.03922
1795.50000    0.02760
1796.00000    0.01593
1796.50000    0.00433
1797.00000   -0.00703
1797.50000   -0.01798
1798.00000   -0.02832
1798.50000   -0.03782
1799.00000   -0.04628
1799.50000   -0.05349
1800.00000   -0.05928
1800.50000   -0.06352
1801.00000   -0.06613
1801.50000   -0.06709
1802.00000   -0.06644
1802.50000   -0.06428
1803.00000   -0.06080
1803.50000   -0.05624
1804.00000   -0.05089
1804.50000   -0.04509
1805.00000   -0.03919
1805.50000   -0.03357
1806.00000   -0.02859
1806.50000   -0.02459
1807.00000   -0.02184
1807.50000   -0.02059
1808.00000   -0.02099
1808.50000   -0.02310
1809.00000   -0.02690
1809.50000   -0.03230
1810.00000   -0.03909
1810.50000   -0.04700
1811.00000   -0.05571
1811.50000   -0.06484
1812.00000   -0.07400
1812.50000   -0.08277
1813.00000   -0.09077
1813.50000   -0.09766
1814.00000   -0.10312
1814.50000   -0.10695
1815.00000   -0.10897
1815.50000   -0.10913
1816.00000   -0.10746
1816.50000   -0.10404
1817.00000   -0.09908
1817.50000   -0.09281
1818.00000   -0.08554
1818.50000   -0.07762
1819.00000   -0.06940
1819.50000   -0.06123
1820.00000   -0.05347
1820.50000   -0.04643
1821.00000   -0.04036
1821.50000   -0.03546
1822.00000   -0.03188
1822.50000   -0.02968
1823.00000   -0.02884
1823.50000   -0.02929
1824.00000   -0.03089
1824.50000   -0.03343
1825.00000   -0.03667
1825.50000   -0.04033
1826.00000   -0.04411
1826.50000   -0.04771
1827.00000   -0.05083
1827.50000   -0.05319
1828.00000   -0.05453
1828.50000   -0.05465
1829.00000   -0.05335
1829.50000   -0.05051
1830.00000   -0.04606
1830.50000   -0.03996
1831.00000   -0.03224
1831.50000   -0.02295
1832.00000   -0.01221
1832.50000   -0.00016
1833.00000    0.01301
1833.50000    0.02711
1834.00000    0.04191
1834.50000    0.05716
1835.00000    0.07263
1835.50000    0.08807
1836.00000    0.10323
1836.50000    0.11789
1837.00000    0.13184
1837.50000    0.14489
1838.00000    0.15686
1838.50000    0.16763
1839.00000    0.17708
1839.50000    0.18515
1840.00000    0.19178
1840.50000    0.19696
1841.00000    0.20071
1841.50000    0.20306
1842.00000    0.20408
1842.50000    0.20386
1843.00000    0.20247
1843.50000    0.20004
1844.00000    0.19665
1844.50000    0.19243
1845.00000    0.18747
1845.50000    0.18189
1846.00000    0.17577
1846.50000    0.16920
1847.00000    0.16227
1847.50000    0.15504
1848.00000    0.14759
1848.50000    0.13999
1849.00000    0.13229
1849.50000    0.12455
1850.00000    0.11685
1850.50000    0.10925
1851.00000    0.10181
1851.50000    0.09460
1852.00000    0.08769
1852.50000    0.08115
1853.00000    0.07503
1853.50000    0.06939
1854.00000    0.06426
1854.50000    0.05966
1855.00000    0.05559
1855.50000    0.05203
1856.00000    0.04891
1856.50000    0.04617
1857.00000    0.04368
1857.50000    0.04132
1858.00000    0.03891
1858.50000    0.03627
1859.00000    0.03321
1859.50000    0.02952
1860.00000    0.02498
1860.50000    0.01939
1861.00000    0.01256
1861.50000    0.00431
1862.00000   -0.00550
1862.50000   -0.01699
1863.00000   -0.03023
1863.50000   -0.04526
1864.00000   -0.06206
1864.50000   -0.08057
1865.00000   -0.10069
1865.50000   -0.12227
1866.00000   -0.14509
1866.50000   -0.16893
1867.00000   -0.19350
1867.50000   -0.21849
1868.00000   -0.24355
1868.50000   -0.26832
1869.00000   -0.29241
1869.50000   -0.31543
1870.00000   -0.33698
1870.50000   -0.35666
1871.00000   -0.37410
1871.50000   -0.38891
1872.00000   -0.40076
1872.50000   -0.40933
1873.00000   -0.41435
1873.50000   -0.41560
1874.00000   -0.41289
1874.50000   -0.40609
1875.00000   -0.39515
1875.50000   -0.38006
1876.00000   -0.36089
1876.50000   -0.33775
1877.00000   -0.31083
1877.50000   -0.28039
1878.00000   -0.24672
1878.50000   -0.21017
1879.00000   -0.17115
1879.50000   -0.13010
1880.00000   -0.08748
1880.50000   -0.04378
1881.00000    0.00049
1881.50000    0.04483
1882.00000    0.08874
1882.50000    0.13174
1883.00000    0.17336
1883.50000    0.21318
1884.00000    0.25081
1884.50000    0.28592
1885.00000    0.31821
1885.50000    0.34745
1886.00000    0.37349
1886.50000    0.39622
1887.00000    0.41561
1887.50000    0.43168
1888.00000    0.44454
1888.50000    0.45433
1889.00000    0.46125
1889.50000    0.46555
1890.00000    0.46752
1890.50000    0.46747
1891.00000    0.46572
1891.50000    0.46260
1892.00000    0.45842
1892.50000    0.45347
1893.00000    0.44801
1893.50000    0.44223
1894.00000    0.43630
1894.50000    0.43032
1895.00000    0.42430
1895.50000    0.41823
1896.00000    0.41201
1896.50000    0.40551
1897.00000    0.39854
1897.50000    0.39089
1898.00000    0.38235
1898.50000    0.37270
1899.00000    0.36173
1899.50000    0.34929
1900.00000    0.33526
1900.50000    0.31959
1901.00000    0.30231
1901.50000    0.28352
1902.00000    0.26340
1902.50000    0.24223
1903.00000    0.22034
1903.50000    0.19813
1904.00000    0.17603
1904.50000    0.15452
1905.00000    0.13409
1905.50000    0.11518
1906.00000    0.09825
1906.50000    0.08368
1907.00000    0.07177
1907.50000    0.06275
1908.00000    0.05678
1908.50000    0.05387
1909.00000    0.05398
1909.50000    0.05693
1910.00000    0.06250
1910.50000    0.07036
1911.00000    0.08015
1911.50000    0.09144
1912.00000    0.10381
1912.50000    0.11683
1913.00000    0.13007
1913.50000    0.14314
1914.00000    0.15570
1914.50000    0.16747
1915.00000    0.17819
1915.50000    0.18772
1916.00000    0.19593
1916.50000    0.20279
1917.00000    0.20830
1917.50000    0.21251
1918.00000    0.21550
1918.50000    0.21740
1919.00000    0.21833
1919.50000    0.21842
1920.00000    0.21782
1920.50000    0.21663
1921.00000    0.21497
1921.50000    0.21293
1922.00000    0.21056
1922.50000    0.20789
1923.00000    0.20494
1923.50000    0.20170
1924.00000    0.19810
1924.50000    0.19411
1925.00000    0.18964
1925.50000    0.18461
1926.00000    0.17890
1926.50000    0.17241
1927.00000    0.16502
1927.50000    0.15664
1928.00000    0.14716
1928.50000    0.13647
1929.00000    0.12450
1929.50000    0.11117
1930.00000    0.09645
1930.50000    0.08029
1931.00000    0.06271
1931.50000    0.04373
1932.00000    0.02341
1932.50000    0.00183
1933.00000   -0.02087
1933.50000   -0.04456
1934.00000   -0.06904
1934.50000   -0.09412
1935.00000   -0.11954
1935.50000   -0.14506
1936.00000   -0.17040
1936.50000   -0.19527
1937.00000   -0.21937
1937.50000   -0.24241
1938.00000   -0.26407
1938.50000   -0.28407
1939.00000   -0.30210
1939.50000   -0.31790
1940.00000   -0.33119
1940.50000   -0.34175
1941.00000   -0.34935
1941.50000   -0.35380
1942.00000   -0.35494
1942.50000   -0.35267
1943.00000   -0.34689
1943.50000   -0.33758
1944.00000   -0.32476
1944.50000   -0.30851
1945.00000   -0.28895
1945.50000   -0.26628
1946.00000   -0.24077
1946.50000   -0.21275
1947.00000   -0.18260
1947.50000   -0.15077
1948.00000   -0.11777
1948.50000   -0.08412
1949.00000   -0.05041
1949.50000   -0.01722
1950.00000    0.01486
1950.50000    0.04524
1951.00000    0.07339
1951.50000    0.09878
1952.00000    0.12099
1952.50000    0.13963
1953.00000    0.15443
1953.50000    0.16518
1954.00000    0.17178
1954.50000    0.17424
1955.00000    0.17264
1955.50000    0.16717
1956.00000    0.15810
1956.50000    0.14576
1957.00000    0.13057
1957.50000    0.11296
1958.00000    0.09341
1958.50000    0.07243
1959.00000    0.05052
1959.50000    0.02818
1960.00000    0.00586
1960.50000   -0.01598
1961.00000   -0.03694
1961.50000   -0.05667
1962.00000   -0.07486
1962.50000   -0.09124
1963.00000   -0.10563
1963.50000   -0.11786
1964.00000   -0.12783
1964.50000   -0.13548
1965.00000   -0.14080
1965.50000   -0.14382
1966.00000   -0.14459
1966.50000   -0.14319
1967.00000   -0.13975
1967.50000   -0.13439
1968.00000   -0.12726
1968.50000   -0.11852
1969.00000   -0.10834
1969.50000   -0.09691
1970.00000   -0.08439
1970.50000   -0.07096
1971.00000   -0.05680
1971.50000   -0.04207
1972.00000   -0.02693
1972.50000   -0.01155
1973.00000    0.00395
1973.50000    0.01940
1974.00000    0.03468
1974.50000    0.04966
1975.00000    0.06421
1975.50000    0.07820
1976.00000    0.09149
1976.50000    0.10395
1977.00000    0.11544
1977.50000    0.12582
1978.00000    0.13493
1978.50000    0.14263
1979.00000    0.14877
1979.50000    0.15319
1980.00000    0.15577
1980.50000    0.15638
1981.00000    0.15491
1981.50000    0.15131
1982.00000    0.14553
1982.50000    0.13757
1983.00000    0.12748
1983.50000    0.11536
1984.00000    0.10134
1984.50000    0.08562
1985.00000    0.06845
1985.50000    0.05011
1986.00000    0.03092
1986.50000    0.01126
1987.00000   -0.00851
1987.50000   -0.02799
1988.00000   -0.04679
1988.50000   -0.06451
1989.00000   -0.08078
1989.50000   -0.09528
1990.00000   -0.10770
1990.50000   -0.11779
1991.00000   -0.12535
1991.50000   -0.13023
1992.00000   -0.13234
1992.50000   -0.13167
1993.00000   -0.12825
1993.50000   -0.12217
1994.00000   -0.11357
1994.50000   -0.10264
1995.00000   -0.08963
1995.50000   -0.07479
1996.00000   -0.05843
1996.50000   -0.04086
1997.00000   -0.02243
1997.50000   -0.00347
1998.00000    0.01567
1998.50000    0.03466
1999.00000    0.05317
1999.50000    0.07090
2000.00000    0.08756
2000.50000    0.10289
2001.00000    0.11666
2001.50000    0.12867
2002.00000    0.13878
2002.50000    0.14686
2003.00000    0.15283
2003.50000    0.15665
2004.00000    0.15833
2004.50000    0.15791
2005.00000    0.15546
2005.50000    0.15111
2006.00000    0.14499
2006.50000    0.13729
2007.00000    0.12820
2007.50000    0.11793
2008.00000    0.10672
2008.50000    0.09479
2009.00000    0.08238
2009.50000    0.06972
2010.00000    0.05701
2010.50000    0.04446
2011.00000    0.03223
2011.50000    0.02049
2012.00000    0.00936
2012.50000   -0.00107
2013.00000   -0.01071
2013.50000   -0.01953
2014.00000   -0.02750
2014.50000   -0.03461
2015.00000   -0.04087
2015.50000   -0.04630
2016.00000   -0.05093
2016.50000   -0.05480
2017.00000   -0.05793
2017.50000   -0.06035
2018.00000   -0.06208
2018.50000   -0.06313
2019.00000   -0.06352
2019.50000   -0.06325
2020.00000   -0.06232
2020.50000   -0.06072
2021.00000   -0.05845
2021.50000   -0.05552
2022.00000   -0.05195
2022.50000   -0.04776
2023.00000   -0.04300
2023.50000   -0.03772
2024.00000   -0.03201
2024.50000   -0.02596
2025.00000   -0.01969
2025.50000   -0.01332
2026.00000   -0.00700
2026.50000   -0.00087
2027.00000    0.00492
2027.50000    0.01022
2028.00000    0.01490
2028.50000    0.01885
2029.00000    0.02196
2029.50000    0.02416
2030.00000    0.02540
2030.50000    0.02567
2031.00000    0.02496
2031.50000    0.02332
2032.00000    0.02082
2032.50000    0.01754
2033.00000    0.01358
2033.50000    0.00906
2034.00000    0.00410
2034.50000   -0.00117
2035.00000   -0.00662
2035.50000   -0.01215
2036.00000   -0.01765
2036.50000   -0.02303
2037.00000   -0.02820
2037.50000   -0.03312
2038.00000   -0.03774
2038.50000   -0.04202
2039.00000   -0.04596
2039.50000   -0.04954
2040.00000   -0.05276
2040.50000   -0.05563
2041.00000   -0.05816
2041.50000   -0.06037
2042.00000   -0.06225
2042.50000   -0.06381
2043.00000   -0.06508
2043.50000   -0.06604
2044.00000   -0.06671
2044.50000   -0.06708
2045.00000   -0.06718
2045.50000   -0.06700
2046.00000   -0.06657
2046.50000   -0.06591
2047.00000   -0.06504
2047.50000   -0.06402
2048.00000   -0.06287
2048.50000   -0.06167
2049.00000   -0.06046
2049.50000   -0.05931
2050.00000   -0.05828
2050.50000   -0.05742
2051.00000   -0.05680
2051.50000   -0.05644
2052.00000   -0.05639
2052.50000   -0.05665
2053.00000   -0.05722
2053.50000   -0.05807
2054.00000   -0.05914
2054.50000   -0.06038
2055.00000   -0.06167
2055.50000   -0.06290
2056.00000   -0.06395
2056.50000   -0.06464
2057.00000   -0.06484
2057.50000   -0.06436
2058.00000   -0.06303
2058.50000   -0.06069
2059.00000   -0.05719
2059.50000   -0.05238
2060.00000   -0.04614
2060.50000   -0.03837
2061.00000   -0.02902
2061.50000   -0.01804
2062.00000   -0.00544
2062.50000    0.00875
2063.00000    0.02445
2063.50000    0.04155
2064.00000    0.05992
2064.50000    0.07936
2065.00000    0.09969
2065.50000    0.12067
2066.00000    0.14204
2066.50000    0.16356
2067.00000    0.18494
2067.50000    0.20591
2068.00000    0.22620
2068.50000    0.24553
2069.00000    0.26365
2069.50000    0.28032
2070.00000    0.29533
2070.50000    0.30847
2071.00000    0.31959
2071.50000    0.32855
2072.00000    0.33525
2072.50000    0.33962
2073.00000    0.34163
2073.50000    0.34127
2074.00000    0.33859
2074.50000    0.33364
2075.00000    0.32653
2075.50000    0.31737
2076.00000    0.30632
2076.50000    0.29356
2077.00000    0.27927
2077.50000    0.26367
2078.00000    0.24697
2078.50000    0.22940
2079.00000    0.21120
2079.50000    0.19258
2080.00000    0.17377
2080.50000    0.15499
2081.00000    0.13641
2081.50000    0.11822
2082.00000    0.10058
2082.50000    0.08362
2083.00000    0.06743
2083.50000    0.05211
2084.00000    0.03771
2084.50000    0.02426
2085.00000    0.01176
2085.50000    0.00021
2086.00000   -0.01041
2086.50000   -0.02014
2087.00000   -0.02902
2087.50000   -0.03710
2088.00000   -0.04441
2088.50000   -0.05100
2089.00000   -0.05690
2089.50000   -0.06210
2090.00000   -0.06664
2090.50000   -0.07048
2091.00000   -0.07362
2091.50000   -0.07602
2092.00000   -0.07766
2092.50000   -0.07849
2093.00000   -0.07847
2093.50000   -0.07758
2094.00000   -0.07579
2094.50000   -0.07310
2095.00000   -0.06952
2095.50000   -0.06509
2096.00000   -0.05985
2096.50000   -0.05388
2097.00000   -0.04728
2097.50000   -0.04018
2098.00000   -0.03271
2098.50000   -0.02502
2099.00000   -0.01727
2099.50000   -0.00962
2100.00000   -0.00224
2100.50000    0.00473
2101.00000    0.01115
2101.50000    0.01689
2102.00000    0.02186
2102.50000    0.02598
2103.00000    0.02919
2103.50000    0.03148
2104.00000    0.03284
2104.50000    0.03330
2105.00000    0.03290
2105.50000    0.03171
2106.00000    0.02978
2106.50000    0.02720
2107.00000    0.02406
2107.50000    0.02044
2108.00000    0.01640
2108.50000    0.01202
2109.00000    0.00736
2109.50000    0.00247
2110.00000   -0.00262
2110.50000   -0.00788
2111.00000   -0.01330
2111.50000   -0.01885
2112.00000   -0.02452
2112.50000   -0.03031
2113.00000   -0.03620
2113.50000   -0.04217
2114.00000   -0.04817
2114.50000   -0.05418
2115.00000   -0.06012
2115.50000   -0.06594
2116.00000   -0.07154
2116.50000   -0.07685
2117.00000   -0.08175
2117.50000   -0.08616
2118.00000   -0.08997
2118.50000   -0.09310
2119.00000   -0.09547
2119.50000   -0.09701
2120.00000   -0.09768
2120.50000   -0.09745
2121.00000   -0.09633
2121.50000   -0.09436
2122.00000   -0.09157
2122.50000   -0.08804
2123.00000   -0.08388
2123.50000   -0.07918
2124.00000   -0.07407
2124.50000   -0.06867
2125.00000   -0.06309
2125.50000   -0.05745
2126.00000   -0.05185
2126.50000   -0.04636
2127.00000   -0.04105
2127.50000   -0.03594
2128.00000   -0.03105
2128.50000   -0.02637
2129.00000   -0.02187
2129.50000   -0.01750
2130.00000   -0.01322
2130.50000   -0.00897
2131.00000   -0.00469
2131.50000   -0.00034
2132.00000    0.00409
2132.50000    0.00861
2133.00000    0.01318
2133.50000    0.01777
2134.00000    0.02227
2134.50000    0.02659
2135.00000    0.03058
2135.50000    0.03410
2136.00000    0.03698
2136.50000    0.03907
2137.00000    0.04022
2137.50000    0.04029
2138.00000    0.03919
2138.50000    0.03686
2139.00000    0.03330
2139.50000    0.02854
2140.00000    0.02270
2140.50000    0.01594
2141.00000    0.00849
2141.50000    0.00063
2142.00000   -0.00731
2142.50000   -0.01495
2143.00000   -0.02190
2143.50000   -0.02774
2144.00000   -0.03208
2144.50000   -0.03452
2145.00000   -0.03472
2145.50000   -0.03236
2146.00000   -0.02723
2146.50000   -0.01917
2147.00000   -0.00810
2147.50000    0.00592
2148.00000    0.02278
2148.50000    0.04224
2149.00000    0.06397
2149.50000    0.08756
2150.00000    0.11251
2150.50000    0.13828
2151.00000    0.16427
2151.50000    0.18985
2152.00000    0.21442
2152.50000    0.23736
2153.00000    0.25811
2153.50000    0.27617
2154.00000    0.29110
2154.50000    0.30258
2155.00000    0.31037
2155.50000    0.31433
2156.00000    0.31446
2156.50000    0.31082
2157.00000    0.30363
2157.50000    0.29314
2158.00000    0.27971
2158.50000    0.26375
2159.00000    0.24570
2159.50000    0.22603
2160.00000    0.20520
2160.50000    0.18366
2161.00000    0.16180
2161.50000    0.14000
2162.00000    0.11855
2162.50000    0.09770
2163.00000    0.07760
2163.50000    0.05837
2164.00000    0.04005
2164.50000    0.02264
2165.00000    0.00610
2165.50000   -0.00963
2166.00000   -0.02464
2166.50000   -0.03899
2167.00000   -0.05274
2167.50000   -0.06593
2168.00000   -0.07854
2168.50000   -0.09052
2169.00000   -0.10178
2169.50000   -0.11219
2170.00000   -0.12154
2170.50000   -0.12964
2171.00000   -0.13623
2171.50000   -0.14106
2172.00000   -0.14388
2172.50000   -0.14445
2173.00000   -0.14257
2173.50000   -0.13806
2174.00000   -0.13081
2174.50000   -0.12080
2175.00000   -0.10804
2175.50000   -0.09265
2176.00000   -0.07481
2176.50000   -0.05481
2177.00000   -0.03298
2177.50000   -0.00975
2178.00000    0.01444
2178.50000    0.03907
2179.00000    0.06360
2179.50000    0.08751
2180.00000    0.11026
2180.50000    0.13136
2181.00000    0.15035
2181.50000    0.16684
2182.00000    0.18049
2182.50000    0.19107
2183.00000    0.19843
2183.50000    0.20249
2184.00000    0.20329
2184.50000    0.20095
2185.00000    0.19564
2185.50000    0.18763
2186.00000    0.17723
2186.50000    0.16479
2187.00000    0.15069
2187.50000    0.13529
2188.00000    0.11899
2188.50000    0.10212
2189.00000    0.08500
2189.50000    0.06791
2190.00000    0.05107
2190.50000    0.03465
2191.00000    0.01876
2191.50000    0.00348
2192.00000   -0.01118
2192.50000   -0.02524
2193.00000   -0.03875
2193.50000   -0.05176
2194.00000   -0.06436
2194.50000   -0.07662
2195.00000   -0.08860
2195.50000   -0.10034
2196.00000   -0.11189
2196.50000   -0.12322
2197.00000   -0.13432
2197.50000   -0.14513
2198.00000   -0.15556
2198.50000   -0.16552
2199.00000   -0.17488
2199.50000   -0.18352
2200.00000   -0.19131
2200.50000   -0.19812
2201.00000   -0.20382
2201.50000   -0.20832
2202.00000   -0.21153
2202.50000   -0.21338
2203.00000   -0.21385
2203.50000   -0.21292
2204.00000   -0.21063
2204.50000   -0.20701
2205.00000   -0.20217
2205.50000   -0.19620
2206.00000   -0.18926
2206.50000   -0.18151
2207.00000   -0.17312
2207.50000   -0.16429
2208.00000   -0.15523
2208.50000   -0.14616
2209.00000   -0.13726
2209.50000   -0.12875
2210.00000   -0.12080
2210.50000   -0.11356
2211.00000   -0.10715
2211.50000   -0.10165
2212.00000   -0.09711
2212.50000   -0.09351
2213.00000   -0.09081
2213.50000   -0.08890
2214.00000   -0.08765
2214.50000   -0.08686
2215.00000   -0.08633
2215.50000   -0.08582
2216.00000   -0.08507
2216.50000   -0.08385
2217.00000   -0.08190
2217.50000   -0.07901
2218.00000   -0.07499
2218.50000   -0.06969
2219.00000   -0.06301
2219.50000   -0.05489
2220.00000   -0.04534
2220.50000   -0.03439
2221.00000   -0.02216
2221.50000   -0.00876
2222.00000    0.00562
2222.50000    0.02080
2223.00000    0.03657
2223.50000    0.05271
2224.00000    0.06901
2224.50000    0.08527
2225.00000    0.10131
2225.50000    0.11696
2226.00000    0.13209
2226.50000    0.14656
2227.00000    0.16029
2227.50000    0.17320
2228.00000    0.18522
2228.50000    0.19631
2229.00000    0.20643
2229.50000    0.21553
2230.00000    0.22359
2230.50000    0.23055
2231.00000    0.23638
2231.50000    0.24104
2232.00000    0.24447
2232.50000    0.24661
2233.00000    0.24742
2233.50000    0.24686
2234.00000    0.24486
2234.50000    0.24142
2235.00000    0.23650
2235.50000    0.23011
2236.00000    0.22226
2236.50000    0.21298
2237.00000    0.20233
2237.50000    0.19039
2238.00000    0.17726
2238.50000    0.16305
2239.00000    0.14790
2239.50000    0.13196
2240.00000    0.11540
2240.50000    0.09840
2241.00000    0.08114
2241.50000    0.06381
2242.00000    0.04659
2242.50000    0.02969
2243.00000    0.01327
2243.50000   -0.00249
2244.00000   -0.01743
2244.50000   -0.03141
2245.00000   -0.04430
2245.50000   -0.05600
2246.00000   -0.06642
2246.50000   -0.07550
2247.00000   -0.08319
2247.50000   -0.08947
2248.00000   -0.09432
2248.50000   -0.09777
2249.00000   -0.09984
2249.50000   -0.10055
2250.00000   -0.09997
2250.50000   -0.09813
2251.00000   -0.09509
2251.50000   -0.09091
2252.00000   -0.08565
2252.50000   -0.07938
2253.00000   -0.07217
2253.50000   -0.06408
2254.00000   -0.05522
2254.50000   -0.04565
2255.00000   -0.03550
2255.50000   -0.02487
2256.00000   -0.01391
2256.50000   -0.00276
2257.00000    0.00842
2257.50000    0.01944
2258.00000    0.03012
2258.50000    0.04025
2259.00000    0.04965
2259.50000    0.05812
2260.00000    0.06547
2260.50000    0.07154
2261.00000    0.07619
2261.50000    0.07931
2262.00000    0.08080
2262.50000    0.08063
2263.00000    0.07879
2263.50000    0.07529
2264.00000    0.07021
2264.50000    0.06363
2265.00000    0.05569
2265.50000    0.04653
2266.00000    0.03631
2266.50000    0.02521
2267.00000    0.01343
2267.50000    0.00115
2268.00000   -0.01145
2268.50000   -0.02419
2269.00000   -0.03688
2269.50000   -0.04937
2270.00000   -0.06151
2270.50000   -0.07313
2271.00000   -0.08412
2271.50000   -0.09433
2272.00000   -0.10364
2272.50000   -0.11195
2273.00000   -0.11914
2273.50000   -0.12512
2274.00000   -0.12979
2274.50000   -0.13309
2275.00000   -0.13495
2275.50000   -0.13535
2276.00000   -0.13427
2276.50000   -0.13173
2277.00000   -0.12778
2277.50000   -0.12252
2278.00000   -0.11605
2278.50000   -0.10855
2279.00000   -0.10020
2279.50000   -0.09122
2280.00000   -0.08185
2280.50000   -0.07237
2281.00000   -0.06303
2281.50000   -0.05412
2282.00000   -0.04588
2282.50000   -0.03858
2283.00000   -0.03241
2283.50000   -0.02757
2284.00000   -0.02418
2284.50000   -0.02233
2285.00000   -0.02205
2285.50000   -0.02332
2286.00000   -0.02607
2286.50000   -0.03017
2287.00000   -0.03545
2287.50000   -0.04170
2288.00000   -0.04867
2288.50000   -0.05611
2289.00000   -0.06372
2289.50000   -0.07123
2290.00000   -0.07835
2290.50000   -0.08481
2291.00000   -0.09037
2291.50000   -0.09481
2292.00000   -0.09793
2292.50000   -0.09957
2293.00000   -0.09962
2293.50000   -0.09799
2294.00000   -0.09464
2294.50000   -0.08956
2295.00000   -0.08276
2295.50000   -0.07431
2296.00000   -0.06428
2296.50000   -0.05278
2297.00000   -0.03993
2297.50000   -0.02591
2298.00000   -0.01086
2298.50000    0.00502
2299.00000    0.02153
2299.50000    0.03846
2300.00000    0.05559
2300.50000    0.07268
2301.00000    0.08950
2301.50000    0.10581
2302.00000    0.12137
2302.50000    0.13596
2303.00000    0.14936
2303.50000    0.16138
2304.00000    0.17183
2304.50000    0.18058
2305.00000    0.18750
2305.50000    0.19253
2306.00000    0.19560
2306.50000    0.19674
2307.00000    0.19596
2307.50000    0.19333
2308.00000    0.18896
2308.50000    0.18298
2309.00000    0.17553
2309.50000    0.16677
2310.00000    0.15687
2310.50000    0.14599
2311.00000    0.13430
2311.50000    0.12193
2312.00000    0.10903
2312.50000    0.09570
2313.00000    0.08204
2313.50000    0.06812
2314.00000    0.05401
2314.50000    0.03976
2315.00000    0.02542
2315.50000    0.01103
2316.00000   -0.00335
2316.50000   -0.01765
2317.00000   -0.03179
2317.50000   -0.04566
2318.00000   -0.05915
2318.50000   -0.07210
2319.00000   -0.08435
2319.50000   -0.09572
2320.00000   -0.10603
2320.50000   -0.11507
2321.00000   -0.12267
2321.50000   -0.12866
2322.00000   -0.13286
2322.50000   -0.13518
2323.00000   -0.13552
2323.50000   -0.13383
2324.00000   -0.13013
2324.50000   -0.12445
2325.00000   -0.11689
2325.50000   -0.10761
2326.00000   -0.09678
2326.50000   -0.08462
2327.00000   -0.07140
2327.50000   -0.05740
2328.00000   -0.04290
2328.50000   -0.02823
2329.00000   -0.01367
2329.50000    0.00046
2330.00000    0.01389
2330.50000    0.02637
2331.00000    0.03766
2331.50000    0.04757
2332.00000    0.05594
2332.50000    0.06267
2333.00000    0.06767
2333.50000    0.07092
2334.00000    0.07245
2334.50000    0.07230
2335.00000    0.07058
2335.50000    0.06742
2336.00000    0.06297
2336.50000    0.05744
2337.00000    0.05100
2337.50000    0.04390
2338.00000    0.03633
2338.50000    0.02851
2339.00000    0.02065
2339.50000    0.01293
2340.00000    0.00552
2340.50000   -0.00145
2341.00000   -0.00786
2341.50000   -0.01362
2342.00000   -0.01869
2342.50000   -0.02304
2343.00000   -0.02667
2343.50000   -0.02959
2344.00000   -0.03185
2344.50000   -0.03348
2345.00000   -0.03455
2345.50000   -0.03509
2346.00000   -0.03515
2346.50000   -0.03478
2347.00000   -0.03400
2347.50000   -0.03283
2348.00000   -0.03127
2348.50000   -0.02932
2349.00000   -0.02697
2349.50000   -0.02419
2350.00000   -0.02098
2350.50000   -0.01732
2351.00000   -0.01320
2351.50000   -0.00863
2352.00000   -0.00362
2352.50000    0.00179
2353.00000    0.00755
2353.50000    0.01360
2354.00000    0.01986
2354.50000    0.02624
2355.00000    0.03263
2355.50000    0.03894
2356.00000    0.04505
2356.50000    0.05086
2357.00000    0.05626
2357.50000    0.06115
2358.00000    0.06546
2358.50000    0.06909
2359.00000    0.07198
2359.50000    0.07407
2360.00000    0.07531
2360.50000    0.07565
2361.00000    0.07505
2361.50000    0.07348
2362.00000    0.07092
2362.50000    0.06733
2363.00000    0.06271
2363.50000    0.05704
2364.00000    0.05032
2364.50000    0.04258
2365.00000    0.03384
2365.50000    0.02415
2366.00000    0.01359
2366.50000    0.00226
2367.00000   -0.00970
2367.50000   -0.02215
2368.00000   -0.03490
2368.50000   -0.04773
2369.00000   -0.06040
2369.50000   -0.07267
2370.00000   -0.08426
2370.50000   -0.09492
2371.00000   -0.10438
2371.50000   -0.11239
2372.00000   -0.11873
2372.50000   -0.12322
2373.00000   -0.12569
2373.50000   -0.12605
2374.00000   -0.12424
2374.50000   -0.12028
2375.00000   -0.11421
2375.50000   -0.10617
2376.00000   -0.09631
2376.50000   -0.08486
2377.00000   -0.07208
2377.50000   -0.05827
2378.00000   -0.04374
2378.50000   -0.02883
2379.00000   -0.01389
2379.50000    0.00075
2380.00000    0.01477
2380.50000    0.02786
2381.00000    0.03976
2381.50000    0.05023
2382.00000    0.05909
2382.50000    0.06619
2383.00000    0.07144
2383.50000    0.07480
2384.00000    0.07627
2384.50000    0.07590
2385.00000    0.07377
2385.50000    0.07003
2386.00000    0.06482
2386.50000    0.05834
2387.00000    0.05078
2387.50000    0.04236
2388.00000    0.03330
2388.50000    0.02383
2389.00000    0.01417
2389.50000    0.00451
2390.00000   -0.00495
2390.50000   -0.01403
2391.00000   -0.02259
2391.50000   -0.03048
2392.00000   -0.03760
2392.50000   -0.04387
2393.00000   -0.04920
2393.50000   -0.05354
2394.00000   -0.05687
2394.50000   -0.05916
2395.00000   -0.06039
2395.50000   -0.06056
2396.00000   -0.05967
2396.50000   -0.05772
2397.00000   -0.05472
2397.50000   -0.05068
2398.00000   -0.04561
2398.50000   -0.03951
2399.00000   -0.03242
2399.50000   -0.02435
2400.00000   -0.01534
2400.50000   -0.00545
2401.00000    0.00525
2401.50000    0.01667
2402.00000    0.02870
2402.50000    0.04120
2403.00000    0.05399
2403.50000    0.06687
2404.00000    0.07965
2404.50000    0.09206
2405.00000    0.10386
2405.50000    0.11479
2406.00000    0.12458
2406.50000    0.13299
2407.00000    0.13977
2407.50000    0.14473
2408.00000    0.14770
2408.50000    0.14857
2409.00000    0.14727
2409.50000    0.14381
2410.00000    0.13825
2410.50000    0.13072
2411.00000    0.12142
2411.50000    0.11060
2412.00000    0.09855
2412.50000    0.08562
2413.00000    0.07217
2413.50000    0.05857
2414.00000    0.04519
2414.50000    0.03238
2415.00000    0.02046
2415.50000    0.00969
2416.00000    0.00026
2416.50000   -0.00768
2417.00000   -0.01408
2417.50000   -0.01896
2418.00000   -0.02241
2418.50000   -0.02460
2419.00000   -0.02576
2419.50000   -0.02617
2420.00000   -0.02613
2420.50000   -0.02597
2421.00000   -0.02604
2421.50000   -0.02666
2422.00000   -0.02811
2422.50000   -0.03065
2423.00000   -0.03447
2423.50000   -0.03970
2424.00000   -0.04641
2424.50000   -0.05457
2425.00000   -0.06410
2425.50000   -0.07486
2426.00000   -0.08663
2426.50000   -0.09914
2427.00000   -0.11209
2427.50000   -0.12515
2428.00000   -0.13797
2428.50000   -0.15021
2429.00000   -0.16152
2429.50000   -0.17159
2430.00000   -0.18015
2430.50000   -0.18696
2431.00000   -0.19184
2431.50000   -0.19465
2432.00000   -0.19534
2432.50000   -0.19389
2433.00000   -0.19034
2433.50000   -0.18481
2434.00000   -0.17745
2434.50000   -0.16846
2435.00000   -0.15808
2435.50000   -0.14656
2436.00000   -0.13419
2436.50000   -0.12127
2437.00000   -0.10808
2437.50000   -0.09491
2438.00000   -0.08201
2438.50000   -0.06962
2439.00000   -0.05794
2439.50000   -0.04713
2440.00000   -0.03732
2440.50000   -0.02857
2441.00000   -0.02093
2441.50000   -0.01439
2442.00000   -0.00890
2442.50000   -0.00440
2443.00000   -0.00079
2443.50000    0.00204
2444.00000    0.00421
2444.50000    0.00583
2445.00000    0.00702
2445.50000    0.00790
2446.00000    0.00854
2446.50000    0.00902
2447.00000    0.00942
2447.50000    0.00976
2448.00000    0.01010
2448.50000    0.01046
2449.00000    0.01087
2449.50000    0.01136
2450.00000    0.01197
2450.50000    0.01275
2451.00000    0.01377
2451.50000    0.01509
2452.00000    0.01681
2452.50000    0.01902
2453.00000    0.02182
2453.50000    0.02530
2454.00000    0.02955
2454.50000    0.03463
2455.00000    0.04059
2455.50000    0.04745
2456.00000    0.05520
2456.50000    0.06377
2457.00000    0.07310
2457.50000    0.08305
2458.00000    0.09350
2458.50000    0.10427
2459.00000    0.11519
2459.50000    0.12609
2460.00000    0.13678
2460.50000    0.14711
2461.00000    0.15692
2461.50000    0.16609
2462.00000    0.17454
2462.50000    0.18220
2463.00000    0.18903
2463.50000    0.19501
2464.00000    0.20016
2464.50000    0.20448
2465.00000    0.20801
2465.50000    0.21077
2466.00000    0.21278
2466.50000    0.21405
2467.00000    0.21458
2467.50000    0.21436
2468.00000    0.21334
2468.50000    0.21149
2469.00000    0.20875
2469.50000    0.20506
2470.00000    0.20037
2470.50000    0.19462
2471.00000    0.18779
2471.50000    0.17986
2472.00000    0.17084
2472.50000    0.16077
2473.00000    0.14970
2473.50000    0.13775
2474.00000    0.12503
2474.50000    0.11170
2475.00000    0.09793
2475.50000    0.08392
2476.00000    0.06988
2476.50000    0.05601
2477.00000    0.04253
2477.50000    0.02964
2478.00000    0.01754
2478.50000    0.00639
2479.00000   -0.00367
2479.50000   -0.01254
2480.00000   -0.02016
2480.50000   -0.02651
2481.00000   -0.03166
2481.50000   -0.03568
2482.00000   -0.03873
2482.50000   -0.04102
2483.00000   -0.04281
2483.50000   -0.04440
2484.00000   -0.04612
2484.50000   -0.04834
2485.00000   -0.05142
2485.50000   -0.05573
2486.00000   -0.06160
2486.50000   -0.06934
2487.00000   -0.07916
2487.50000   -0.09125
2488.00000   -0.10567
2488.50000   -0.12239
2489.00000   -0.14129
2489.50000   -0.16214
2490.00000   -0.18461
2490.50000   -0.20825
2491.00000   -0.23257
2491.50000   -0.25700
2492.00000   -0.28093
2492.50000   -0.30373
2493.00000   -0.32478
2493.50000   -0.34347
2494.00000   -0.35928
2494.50000   -0.37174
2495.00000   -0.38045
2495.50000   -0.38514
2496.00000   -0.38563
2496.50000   -0.38186
2497.00000   -0.37389
2497.50000   -0.36185
2498.00000   -0.34599
2498.50000   -0.32663
2499.00000   -0.30418
2499.50000   -0.27906
2500.00000   -0.25176
2500.50000   -0.22279
2501.00000   -0.19264
2501.50000   -0.16182
2502.00000   -0.13081
2502.50000   -0.10009
2503.00000   -0.07006
2503.50000   -0.04113
2504.00000   -0.01363
2504.50000    0.01212
2505.00000    0.03588
2505.50000    0.05743
2506.00000    0.07663
2506.50000    0.09336
2507.00000    0.10756
2507.50000    0.11924
2508.00000    0.12842
2508.50000    0.13518
2509.00000    0.13966
2509.50000    0.14202
2510.00000    0.14244
2510.50000    0.14115
2511.00000    0.13839
2511.50000    0.13440
2512.00000    0.12946
2512.50000    0.12380
2513.00000    0.11768
2513.50000    0.11131
2514.00000    0.10491
2514.50000    0.09865
2515.00000    0.09267
2515.50000    0.08710
2516.00000    0.08203
2516.50000    0.07750
2517.00000    0.07356
2517.50000    0.07019
2518.00000    0.06740
2518.50000    0.06513
2519.00000    0.06333
2519.50000    0.06196
2520.00000    0.06093
2520.50000    0.06018
2521.00000    0.05962
2521.50000    0.05920
2522.00000    0.05883
2522.50000    0.05845
2523.00000    0.05801
2523.50000    0.05747
2524.00000    0.05680
2524.50000    0.05599
2525.00000    0.05504
2525.50000    0.05400
2526.00000    0.05291
2526.50000    0.05186
2527.00000    0.05094
2527.50000    0.05027
2528.00000    0.05000
2528.50000    0.05027
2529.00000    0.05125
2529.50000    0.05308
2530.00000    0.05592
2530.50000    0.05987
2531.00000    0.06505
2531.50000    0.07149
2532.00000    0.07922
2532.50000    0.08819
2533.00000    0.09830
2533.50000    0.10940
2534.00000    0.12128
2534.50000    0.13368
2535.00000    0.14628
2535.50000    0.15875
2536.00000    0.17072
2536.50000    0.18180
2537.00000    0.19162
2537.50000    0.19980
2538.00000    0.20602
2538.50000    0.20998
2539.00000    0.21143
2539.50000    0.21020
2540.00000    0.20618
2540.50000    0.19932
2541.00000    0.18967
2541.50000    0.17734
2542.00000    0.16252
2542.50000    0.14546
2543.00000    0.12648
2543.50000    0.10593
2544.00000    0.08421
2544.50000    0.06174
2545.00000    0.03898
2545.50000    0.01635
2546.00000   -0.00571
2546.50000   -0.02679
2547.00000   -0.04653
2547.50000   -0.06459
2548.00000   -0.08071
2548.50000   -0.09466
2549.00000   -0.10630
2549.50000   -0.11556
2550.00000   -0.12243
2550.50000   -0.12697
2551.00000   -0.12932
2551.50000   -0.12968
2552.00000   -0.12828
2552.50000   -0.12543
2553.00000   -0.12145
2553.50000   -0.11668
2554.00000   -0.11148
2554.50000   -0.10619
2555.00000   -0.10114
2555.50000   -0.09662
2556.00000   -0.09287
2556.50000   -0.09008
2557.00000   -0.08838
2557.50000   -0.08784
2558.00000   -0.08845
2558.50000   -0.09014
2559.00000   -0.09278
2559.50000   -0.09619
2560.00000   -0.10013
2560.50000   -0.10435
2561.00000   -0.10857
2561.50000   -0.11250
2562.00000   -0.11587
2562.50000   -0.11841
2563.00000   -0.11990
2563.50000   -0.12015
2564.00000   -0.11902
2564.50000   -0.11642
2565.00000   -0.11231
2565.50000   -0.10671
2566.00000   -0.09967
2566.50000   -0.09129
2567.00000   -0.08169
2567.50000   -0.07105
2568.00000   -0.05951
2568.50000   -0.04728
2569.00000   -0.03452
2569.50000   -0.02142
2570.00000   -0.00812
2570.50000    0.00520
2571.00000    0.01842
2571.50000    0.03140
2572.00000    0.04403
2572.50000    0.05620
2573.00000    0.06779
2573.50000    0.07869
2574.00000    0.08878
2574.50000    0.09794
2575.00000    0.10602
2575.50000    0.11289
2576.00000    0.11839
2576.50000    0.12240
2577.00000    0.12477
2577.50000    0.12538
2578.00000    0.12416
2578.50000    0.12103
2579.00000    0.11599
2579.50000    0.10908
2580.00000    0.10039
2580.50000    0.09007
2581.00000    0.07832
2581.50000    0.06539
2582.00000    0.05158
2582.50000    0.03723
2583.00000    0.02267
2583.50000    0.00825
2584.00000   -0.00567
2584.50000   -0.01879
2585.00000   -0.03082
2585.50000   -0.04155
2586.00000   -0.05081
2586.50000   -0.05850
2587.00000   -0.06460
2587.50000   -0.06915
2588.00000   -0.07225
2588.50000   -0.07406
2589.00000   -0.07479
2589.50000   -0.07467
2590.00000   -0.07395
2590.50000   -0.07287
2591.00000   -0.07168
2591.50000   -0.07058
2592.00000   -0.06975
2592.50000   -0.06933
2593.00000   -0.06939
2593.50000   -0.06995
2594.00000   -0.07100
2594.50000   -0.07246
2595.00000   -0.07420
2595.50000   -0.07607
2596.00000   -0.07789
2596.50000   -0.07944
2597.00000   -0.08050
2597.50000   -0.08087
2598.00000   -0.08032
2598.50000   -0.07866
2599.00000   -0.07572
2599.50000   -0.07136
2600.00000   -0.06547
2600.50000   -0.05800
2601.00000   -0.04895
2601.50000   -0.03834
2602.00000   -0.02629
2602.50000   -0.01295
2603.00000    0.00146
2603.50000    0.01667
2604.00000    0.03236
2604.50000    0.04816
2605.00000    0.06366
2605.50000    0.07842
2606.00000    0.09201
2606.50000    0.10397
2607.00000    0.11388
2607.50000    0.12135
2608.00000    0.12604
2608.50000    0.12767
2609.00000    0.12607
2609.50000    0.12112
2610.00000    0.11283
2610.50000    0.10129
2611.00000    0.08672
2611.50000    0.06940
2612.00000    0.04971
2612.50000    0.02810
2613.00000    0.00508
2613.50000   -0.01880
2614.00000   -0.04300
2614.50000   -0.06693
2615.00000   -0.09008
2615.50000   -0.11192
2616.00000   -0.13201
2616.50000   -0.14993
2617.00000   -0.16536
2617.50000   -0.17802
2618.00000   -0.18772
2618.50000   -0.19432
2619.00000   -0.19777
2619.50000   -0.19806
2620.00000   -0.19524
2620.50000   -0.18942
2621.00000   -0.18073
2621.50000   -0.16938
2622.00000   -0.15560
2622.50000   -0.13966
2623.00000   -0.12186
2623.50000   -0.10255
2624.00000   -0.08210
2624.50000   -0.06089
2625.00000   -0.03936
2625.50000   -0.01792
2626.00000    0.00298
2626.50000    0.02291
2627.00000    0.04147
2627.50000    0.05826
2628.00000    0.07296
2628.50000    0.08529
2629.00000    0.09501
2629.50000    0.10199
2630.00000    0.10617
2630.50000    0.10757
2631.00000    0.10628
2631.50000    0.10248
2632.00000    0.09642
2632.50000    0.08839
2633.00000    0.07876
2633.50000    0.06791
2634.00000    0.05624
2634.50000    0.04416
2635.00000    0.03208
2635.50000    0.02041
2636.00000    0.00950
2636.50000   -0.00030
2637.00000   -0.00868
2637.50000   -0.01535
2638.00000   -0.02008
2638.50000   -0.02266
2639.00000   -0.02290
2639.50000   -0.02066
2640.00000   -0.01580
2640.50000   -0.00825
2641.00000    0.00208
2641.50000    0.01523
2642.00000    0.03121
2642.50000    0.05002
2643.00000    0.07162
2643.50000    0.09593
2644.00000    0.12288
2644.50000    0.15234
2645.00000    0.18417
2645.50000    0.21823
2646.00000    0.25436
2646.50000    0.29241
2647.00000    0.33220
2647.50000    0.37363
2648.00000    0.41656
2648.50000    0.46093
2649.00000    0.50669
2649.50000    0.55385
2650.00000    0.60246
2650.50000    0.65262
2651.00000    0.70447
2651.50000    0.75822
2652.00000    0.81411
2652.50000    0.87243
2653.00000    0.93351
2653.50000    0.99771
2654.00000    1.06544
2654.50000    1.13713
2655.00000    1.21323
2655.50000    1.29420
2656.00000    1.38054
2656.50000    1.47273
2657.00000    1.57124
2657.50000    1.67655
2658.00000    1.78907
2658.50000    1.90919
2659.00000    2.03724
2659.50000    2.17347
2660.00000    2.31803
2660.50000    2.47098
2661.00000    2.63224
2661.50000    2.80165
2662.00000    2.97888
2662.50000    3.16348
2663.00000    3.35490
2663.50000    3.55245
2664.00000    3.75538
2664.50000    3.96285
2665.00000    4.17398
2665.50000    4.38786
2666.00000    4.60361
2666.50000    4.82036
2667.00000    5.03734
2667.50000    5.25381
2668.00000    5.46917
2668.50000    5.68290
2669.00000    5.89459
2669.50000    6.10394
2670.00000    6.31071
2670.50000    6.51477
2671.00000    6.71602
2671.50000    6.91438
2672.00000    7.10977
2672.50000    7.30212
2673.00000    7.49126
2673.50000    7.67701
2674.00000    7.85909
2674.50000    8.03716
2675.00000    8.21077
2675.50000    8.37944
2676.00000    8.54261
2676.50000    8.69969
2677.00000    8.85005
2677.50000    8.99309
2678.00000    9.12821
2678.50000    9.25486
2679.00000    9.37254
2679.50000    9.48083
2680.00000    9.57938
2680.50000    9.66791
2681.00000    9.74621
2681.50000    9.81414
2682.00000    9.87159
2682.50000    9.91852
2683.00000    9.95487
2683.50000    9.98061
2684.00000    9.99567
2684.50000   10.00000
2685.00000    9.99348
2685.50000    9.97598
2686.00000    9.94733
2686.50000    9.90735
2687.00000    9.85583
2687.50000    9.79259
2688.00000    9.71743
2688.50000    9.63022
2689.00000    9.53088
2689.50000    9.41938
2690.00000    9.29581
2690.50000    9.16034
2691.00000    9.01324
2691.50000    8.85491
2692.00000    8.68585
2692.50000    8.50666
2693.00000    8.31804
2693.50000    8.12079
2694.00000    7.91576
2694.50000    7.70384
2695.00000    7.48600
2695.50000    7.26320
2696.00000    7.03642
2696.50000    6.80662
2697.00000    6.57476
2697.50000    6.34178
2698.00000    6.10859
2698.50000    5.87605
2699.00000    5.64502
2699.50000    5.41629
2700.00000    5.19066
2700.50000    4.96887
2701.00000    4.75162
2701.50000    4.53961
2702.00000    4.33348
2702.50000    4.13383
2703.00000    3.94121
2703.50000    3.75612
2704.00000    3.57896
2704.50000    3.41009
2705.00000    3.24975
2705.50000    3.09808
2706.00000    2.95512
2706.50000    2.82078
2707.00000    2.69487
2707.50000    2.57707
2708.00000    2.46695
2708.50000    2.36398
2709.00000    2.26757
2709.50000    2.17703
2710.00000    2.09165
2710.50000    2.01069
2711.00000    1.93344
2711.50000    1.85919
2712.00000    1.78730
2712.50000    1.71719
2713.00000    1.64836
2713.50000    1.58043
2714.00000    1.51310
2714.50000    1.44619
2715.00000    1.37962
2715.50000    1.31338
2716.00000    1.24758
2716.50000    1.18237
2717.00000    1.11796
2717.50000    1.05459
2718.00000    0.99253
2718.50000    0.93204
2719.00000    0.87339
2719.50000    0.81679
2720.00000    0.76247
2720.50000    0.71059
2721.00000    0.66128
2721.50000    0.61463
2722.00000    0.57071
2722.50000    0.52954
2723.00000    0.49111
2723.50000    0.45540
2724.00000    0.42236
2724.50000    0.39192
2725.00000    0.36401
2725.50000    0.33855
2726.00000    0.31543
2726.50000    0.29455
2727.00000    0.27580
2727.50000    0.25904
2728.00000    0.24415
2728.50000    0.23098
2729.00000    0.21937
2729.50000    0.20916
2730.00000    0.20018
2730.50000    0.19224
2731.00000    0.18518
2731.50000    0.17880
2732.00000    0.17294
2732.50000    0.16742
2733.00000    0.16210
2733.50000    0.15683
2734.00000    0.15146
2734.50000    0.14590
2735.00000    0.14004
2735.50000    0.13379
2736.00000    0.12708
2736.50000    0.11986
2737.00000    0.11206
2737.50000    0.10365
2738.00000    0.09459
2738.50000    0.08488
2739.00000    0.07448
2739.50000    0.06340
2740.00000    0.05165
2740.50000    0.03922
2741.00000    0.02616
2741.50000    0.01251
2742.00000   -0.00168
2742.50000   -0.01634
2743.00000   -0.03139
2743.50000   -0.04671
2744.00000   -0.06220
2744.50000   -0.07773
2745.00000   -0.09317
2745.50000   -0.10836
2746.00000   -0.12316
2746.50000   -0.13741
2747.00000   -0.15095
2747.50000   -0.16363
2748.00000   -0.17529
2748.50000   -0.18579
2749.00000   -0.19498
2749.50000   -0.20274
2750.00000   -0.20894
2750.50000   -0.21347
2751.00000   -0.21625
2751.50000   -0.21719
2752.00000   -0.21624
2752.50000   -0.21338
2753.00000   -0.20859
2753.50000   -0.20191
2754.00000   -0.19339
2754.50000   -0.18312
2755.00000   -0.17122
2755.50000   -0.15785
2756.00000   -0.14320
2756.50000   -0.12747
2757.00000   -0.11090
2757.50000   -0.09374
2758.00000   -0.07626
2758.50000   -0.05873
2759.00000   -0.04139
2759.50000   -0.02452
2760.00000   -0.00832
2760.50000    0.00698
2761.00000    0.02122
2761.50000    0.03424
2762.00000    0.04596
2762.50000    0.05627
2763.00000    0.06516
2763.50000    0.07259
2764.00000    0.07857
2764.50000    0.08313
2765.00000    0.08628
2765.50000    0.08808
2766.00000    0.08855
2766.50000    0.08771
2767.00000    0.08558
2767.50000    0.08217
2768.00000    0.07749
2768.50000    0.07152
2769.00000    0.06427
2769.50000    0.05575
2770.00000    0.04596
2770.50000    0.03497
2771.00000    0.02285
2771.50000    0.00972
2772.00000   -0.00425
2772.50000   -0.01887
2773.00000   -0.03386
2773.50000   -0.04893
2774.00000   -0.06374
2774.50000   -0.07791
2775.00000   -0.09106
2775.50000   -0.10281
2776.00000   -0.11277
2776.50000   -0.12061
2777.00000   -0.12602
2777.50000   -0.12878
2778.00000   -0.12872
2778.50000   -0.12577
2779.00000   -0.11994
2779.50000   -0.11133
2780.00000   -0.10014
2780.50000   -0.08664
2781.00000   -0.07118
2781.50000   -0.05416
2782.00000   -0.03603
2782.50000   -0.01726
2783.00000    0.00168
2783.50000    0.02033
2784.00000    0.03826
2784.50000    0.05507
2785.00000    0.07043
2785.50000    0.08406
2786.00000    0.09574
2786.50000    0.10532
2787.00000    0.11271
2787.50000    0.11787
2788.00000    0.12082
2788.50000    0.12162
2789.00000    0.12036
2789.50000    0.11717
2790.00000    0.11219
2790.50000    0.10558
2791.00000    0.09752
2791.50000    0.08817
2792.00000    0.07772
2792.50000    0.06635
2793.00000    0.05424
2793.50000    0.04156
2794.00000    0.02849
2794.50000    0.01520
2795.00000    0.00185
2795.50000   -0.01143
2796.00000   -0.02448
2796.50000   -0.03720
2797.00000   -0.04949
2797.50000   -0.06125
2798.00000   -0.07245
2798.50000   -0.08303
2799.00000   -0.09298
2799.50000   -0.10230
2800.00000   -0.11099
2800.50000   -0.11908
2801.00000   -0.12657
2801.50000   -0.13349
2802.00000   -0.13985
2802.50000   -0.14564
2803.00000   -0.15085
2803.50000   -0.15542
2804.00000   -0.15932
2804.50000   -0.16245
2805.00000   -0.16473
2805.50000   -0.16605
2806.00000   -0.16629
2806.50000   -0.16535
2807.00000   -0.16310
2807.50000   -0.15943
2808.00000   -0.15424
2808.50000   -0.14745
2809.00000   -0.13898
2809.50000   -0.12880
2810.00000   -0.11687
2810.50000   -0.10321
2811.00000   -0.08783
2811.50000   -0.07081
2812.00000   -0.05223
2812.50000   -0.03222
2813.00000   -0.01093
2813.50000    0.01144
2814.00000    0.03465
2814.50000    0.05843
2815.00000    0.08248
2815.50000    0.10646
2816.00000    0.12999
2816.50000    0.15269
2817.00000    0.17416
2817.50000    0.19400
2818.00000    0.21184
2818.50000    0.22733
2819.00000    0.24015
2819.50000    0.25007
2820.00000    0.25690
2820.50000    0.26055
2821.00000    0.26103
2821.50000    0.25840
2822.00000    0.25285
2822.50000    0.24463
2823.00000    0.23409
2823.50000    0.22159
2824.00000    0.20758
2824.50000    0.19249
2825.00000    0.17678
2825.50000    0.16086
2826.00000    0.14510
2826.50000    0.12983
2827.00000    0.11529
2827.50000    0.10165
2828.00000    0.08898
2828.50000    0.07728
2829.00000    0.06647
2829.50000    0.05642
2830.00000    0.04693
2830.50000    0.03779
2831.00000    0.02876
2831.50000    0.01962
2832.00000    0.01016
2832.50000    0.00022
2833.00000   -0.01031
2833.50000   -0.02148
2834.00000   -0.03329
2834.50000   -0.04564
2835.00000   -0.05841
2835.50000   -0.07139
2836.00000   -0.08437
2836.50000   -0.09708
2837.00000   -0.10923
2837.50000   -0.12056
2838.00000   -0.13081
2838.50000   -0.13975
2839.00000   -0.14719
2839.50000   -0.15300
2840.00000   -0.15708
2840.50000   -0.15942
2841.00000   -0.16003
2841.50000   -0.15899
2842.00000   -0.15641
2842.50000   -0.15245
2843.00000   -0.14728
2843.50000   -0.14108
2844.00000   -0.13404
2844.50000   -0.12633
2845.00000   -0.11812
2845.50000   -0.10955
2846.00000   -0.10074
2846.50000   -0.09177
2847.00000   -0.08274
2847.50000   -0.07369
2848.00000   -0.06467
2848.50000   -0.05574
2849.00000   -0.04692
2849.50000   -0.03829
2850.00000   -0.02991
2850.50000   -0.02186
2851.00000   -0.01423
2851.50000   -0.00712
2852.00000   -0.00065
2852.50000    0.00509
2853.00000    0.01000
2853.50000    0.01400
2854.00000    0.01707
2854.50000    0.01919
2855.00000    0.02040
2855.50000    0.02081
2856.00000    0.02055
2856.50000    0.01980
2857.00000    0.01879
2857.50000    0.01778
2858.00000    0.01705
2858.50000    0.01686
2859.00000    0.01751
2859.50000    0.01922
2860.00000    0.02222
2860.50000    0.02666
2861.00000    0.03265
2861.50000    0.04023
2862.00000    0.04937
2862.50000    0.05999
2863.00000    0.07194
2863.50000    0.08502
2864.00000    0.09899
2864.50000    0.11358
2865.00000    0.12848
2865.50000    0.14339
2866.00000    0.15799
2866.50000    0.17197
2867.00000    0.18502
2867.50000    0.19686
2868.00000    0.20720
2868.50000    0.21579
2869.00000    0.22237
2869.50000    0.22672
2870.00000    0.22863
2870.50000    0.22790
2871.00000    0.22437
2871.50000    0.21792
2872.00000    0.20844
2872.50000    0.19590
2873.00000    0.18031
2873.50000    0.16175
2874.00000    0.14034
2874.50000    0.11633
2875.00000    0.09001
2875.50000    0.06174
2876.00000    0.03198
2876.50000    0.00124
2877.00000   -0.02993
2877.50000   -0.06094
2878.00000   -0.09118
2878.50000   -0.12007
2879.00000   -0.14703
2879.50000   -0.17155
2880.00000   -0.19319
2880.50000   -0.21158
2881.00000   -0.22646
2881.50000   -0.23769
2882.00000   -0.24523
2882.50000   -0.24913
2883.00000   -0.24956
2883.50000   -0.24679
2884.00000   -0.24113
2884.50000   -0.23296
2885.00000   -0.22269
2885.50000   -0.21073
2886.00000   -0.19748
2886.50000   -0.18332
2887.00000   -0.16856
2887.50000   -0.15349
2888.00000   -0.13829
2888.50000   -0.12309
2889.00000   -0.10795
2889.50000   -0.09285
2890.00000   -0.07772
2890.50000   -0.06245
2891.00000   -0.04689
2891.50000   -0.03086
2892.00000   -0.01419
2892.50000    0.00328
2893.00000    0.02168
2893.50000    0.04113
2894.00000    0.06168
2894.50000    0.08336
2895.00000    0.10614
2895.50000    0.12995
2896.00000    0.15469
2896.50000    0.18023
2897.00000    0.20642
2897.50000    0.23310
2898.00000    0.26013
2898.50000    0.28737
2899.00000    0.31471
2899.50000    0.34210
