1200.50000    0.03045
1201.00000    0.03264
1201.50000    0.03478
1202.00000    0.03681
1202.50000    0.03868
1203.00000    0.04031
1203.50000    0.04165
1204.00000    0.04262
1204.50000    0.04316
1205.00000    0.04323
1205.50000    0.04276
1206.00000    0.04173
1206.50000    0.04012
1207.00000    0.03792
1207.50000    0.03513
1208.00000    0.03178
1208.50000    0.02789
1209.00000    0.02350
1209.50000    0.01868
1210.00000    0.01348
1210.50000    0.00798
1211.00000    0.00223
1211.50000   -0.00367
1212.00000   -0.00964
1212.50000   -0.01561
1213.00000   -0.02150
1213.50000   -0.02721
1214.00000   -0.03267
1214.50000   -0.03781
1215.00000   -0.04255
1215.50000   -0.04682
1216.00000   -0.05056
1216.50000   -0.05371
1217.00000   -0.05622
1217.50000   -0.05804
1218.00000   -0.05915
1218.50000   -0.05952
1219.00000   -0.05914
1219.50000   -0.05801
1220.00000   -0.05615
1220.50000   -0.05359
1221.00000   -0.05038
1221.50000   -0.04656
1222.00000   -0.04222
1222.50000   -0.03744
1223.00000   -0.03231
1223.50000   -0.02694
1224.00000   -0.02143
1224.50000   -0.01590
1225.00000   -0.01046
1225.50000   -0.00523
1226.00000   -0.00030
1226.50000    0.00422
1227.00000    0.00824
1227.50000    0.01171
1228.00000    0.01455
1228.50000    0.01673
1229.00000    0.01824
1229.50000    0.01906
1230.00000    0.01920
1230.50000    0.01870
1231.00000    0.01760
1231.50000    0.01594
1232.00000    0.01381
1232.50000    0.01125
1233.00000    0.00836
1233.50000    0.00521
1234.00000    0.00187
1234.50000   -0.00158
1235.00000   -0.00507
1235.50000   -0.00855
1236.00000   -0.01195
1236.50000   -0.01523
1237.00000   -0.01835
1237.50000   -0.02128
1238.00000   -0.02399
1238.50000   -0.02645
1239.00000   -0.02865
1239.50000   -0.03056
1240.00000   -0.03219
1240.50000   -0.03349
1241.00000   -0.03447
1241.50000   -0.03510
1242.00000   -0.03536
1242.50000   -0.03523
1243.00000   -0.03468
1243.50000   -0.03369
1244.00000   -0.03224
1244.50000   -0.03030
1245.00000   -0.02787
1245.50000   -0.02494
1246.00000   -0.02150
1246.50000   -0.01757
1247.00000   -0.01318
1247.50000   -0.00834
1248.00000   -0.00312
1248.50000    0.00243
1249.00000    0.00823
1249.50000    0.01421
1250.00000    0.02026
1250.50000    0.02630
1251.00000    0.03220
1251.50000    0.03788
1252.00000    0.04321
1252.50000    0.04809
1253.00000    0.05243
1253.50000    0.05613
1254.00000    0.05912
1254.50000    0.06133
1255.00000    0.06271
1255.50000    0.06322
1256.00000    0.06284
1256.50000    0.06156
1257.00000    0.05940
1257.50000    0.05638
1258.00000    0.05254
1258.50000    0.04793
1259.00000    0.04263
1259.50000    0.03669
1260.00000    0.03022
1260.50000    0.02330
1261.00000    0.01603
1261.50000    0.00851
1262.00000    0.00085
1262.50000   -0.00683
1263.00000   -0.01444
1263.50000   -0.02184
1264.00000   -0.02893
1264.50000   -0.03561
1265.00000   -0.04175
1265.50000   -0.04726
1266.00000   -0.05204
1266.50000   -0.05600
1267.00000   -0.05906
1267.50000   -0.06115
1268.00000   -0.06221
1268.50000   -0.06221
1269.00000   -0.06111
1269.50000   -0.05892
1270.00000   -0.05564
1270.50000   -0.05130
1271.00000   -0.04595
1271.50000   -0.03967
1272.00000   -0.03252
1272.50000   -0.02462
1273.00000   -0.01608
1273.50000   -0.00703
1274.00000    0.00241
1274.50000    0.01208
1275.00000    0.02184
1275.50000    0.03153
1276.00000    0.04102
1276.50000    0.05016
1277.00000    0.05880
1277.50000    0.06684
1278.00000    0.07413
1278.50000    0.08059
1279.00000    0.08612
1279.50000    0.09065
1280.00000    0.09410
1280.50000    0.09644
1281.00000    0.09763
1281.50000    0.09766
1282.00000    0.09654
1282.50000    0.09427
1283.00000    0.09091
1283.50000    0.08650
1284.00000    0.08111
1284.50000    0.07482
1285.00000    0.06774
1285.50000    0.05996
1286.00000    0.05163
1286.50000    0.04287
1287.00000    0.03382
1287.50000    0.02462
1288.00000    0.01543
1288.50000    0.00638
1289.00000   -0.00238
1289.50000   -0.01072
1290.00000   -0.01853
1290.50000   -0.02570
1291.00000   -0.03215
1291.50000   -0.03780
1292.00000   -0.04263
1292.50000   -0.04661
1293.00000   -0.04974
1293.50000   -0.05204
1294.00000   -0.05358
1294.50000   -0.05441
1295.00000   -0.05461
1295.50000   -0.05428
1296.00000   -0.05351
1296.50000   -0.05241
1297.00000   -0.05107
1297.50000   -0.04960
1298.00000   -0.04808
1298.50000   -0.04659
1299.00000   -0.04518
1299.50000   -0.04390
1300.00000   -0.04278
1300.50000   -0.04183
1301.00000   -0.04105
1301.50000   -0.04042
1302.00000   -0.03992
1302.50000   -0.03951
1303.00000   -0.03917
1303.50000   -0.03885
1304.00000   -0.03852
1304.50000   -0.03815
1305.00000   -0.03772
1305.50000   -0.03723
1306.00000   -0.03666
1306.50000   -0.03604
1307.00000   -0.03536
1307.50000   -0.03464
1308.00000   -0.03392
1308.50000   -0.03321
1309.00000   -0.03251
1309.50000   -0.03185
1310.00000   -0.03120
1310.50000   -0.03055
1311.00000   -0.02985
1311.50000   -0.02905
1312.00000   -0.02806
1312.50000   -0.02677
1313.00000   -0.02507
1313.50000   -0.02283
1314.00000   -0.01989
1314.50000   -0.01611
1315.00000   -0.01133
1315.50000   -0.00541
1316.00000    0.00178
1316.50000    0.01037
1317.00000    0.02044
1317.50000    0.03207
1318.00000    0.04528
1318.50000    0.06008
1319.00000    0.07645
1319.50000    0.09432
1320.00000    0.11359
1320.50000    0.13415
1321.00000    0.15586
1321.50000    0.17859
1322.00000    0.20217
1322.50000    0.22647
1323.00000    0.25134
1323.50000    0.27669
1324.00000    0.30242
1324.50000    0.32848
1325.00000    0.35486
1325.50000    0.38158
1326.00000    0.40873
1326.50000    0.43639
1327.00000    0.46472
1327.50000    0.49390
1328.00000    0.52413
1328.50000    0.55561
1329.00000    0.58859
1329.50000    0.62328
1330.00000    0.65987
1330.50000    0.69854
1331.00000    0.73945
1331.50000    0.78266
1332.00000    0.82823
1332.50000    0.87614
1333.00000    0.92630
1333.50000    0.97856
1334.00000    1.03270
1334.50000    1.08845
1335.00000    1.14546
1335.50000    1.20334
1336.00000    1.26165
1336.50000    1.31991
1337.00000    1.37761
1337.50000    1.43424
1338.00000    1.48927
1338.50000    1.54218
1339.00000    1.59245
1339.50000    1.63961
1340.00000    1.68321
1340.50000    1.72282
1341.00000    1.75809
1341.50000    1.78869
1342.00000    1.81436
1342.50000    1.83489
1343.00000    1.85012
1343.50000    1.85994
1344.00000    1.86431
1344.50000    1.86322
1345.00000    1.85675
1345.50000    1.84498
1346.00000    1.82807
1346.50000    1.80621
1347.00000    1.77963
1347.50000    1.74860
1348.00000    1.71342
1348.50000    1.67440
1349.00000    1.63191
1349.50000    1.58630
1350.00000    1.53797
1350.50000    1.48729
1351.00000    1.43469
1351.50000    1.38055
1352.00000    1.32528
1352.50000    1.26926
1353.00000    1.21288
1353.50000    1.15650
1354.00000    1.10046
1354.50000    1.04508
1355.00000    0.99063
1355.50000    0.93738
1356.00000    0.88555
1356.50000    0.83532
1357.00000    0.78686
1357.50000    0.74027
1358.00000    0.69565
1358.50000    0.65305
1359.00000    0.61251
1359.50000    0.57402
1360.00000    0.53757
1360.50000    0.50313
1361.00000    0.47065
1361.50000    0.44007
1362.00000    0.41133
1362.50000    0.38434
1363.00000    0.35904
1363.50000    0.33535
1364.00000    0.31319
1364.50000    0.29249
1365.00000    0.27316
1365.50000    0.25514
1366.00000    0.23834
1366.50000    0.22269
1367.00000    0.20811
1367.50000    0.19452
1368.00000    0.18182
1368.50000    0.16994
1369.00000    0.15879
1369.50000    0.14827
1370.00000    0.13830
1370.50000    0.12879
1371.00000    0.11966
1371.50000    0.11082
1372.00000    0.10221
1372.50000    0.09378
1373.00000    0.08547
1373.50000    0.07725
1374.00000    0.06911
1374.50000    0.06106
1375.00000    0.05311
1375.50000    0.04529
1376.00000    0.03766
1376.50000    0.03028
1377.00000    0.02321
1377.50000    0.01653
1378.00000    0.01032
1378.50000    0.00465
1379.00000   -0.00039
1379.50000   -0.00475
1380.00000   -0.00838
1380.50000   -0.01123
1381.00000   -0.01330
1381.50000   -0.01457
1382.00000   -0.01508
1382.50000   -0.01484
1383.00000   -0.01392
1383.50000   -0.01238
1384.00000   -0.01031
1384.50000   -0.00781
1385.00000   -0.00496
1385.50000   -0.00188
1386.00000    0.00134
1386.50000    0.00459
1387.00000    0.00779
1387.50000    0.01084
1388.00000    0.01368
1388.50000    0.01624
1389.00000    0.01848
1389.50000    0.02036
1390.00000    0.02186
1390.50000    0.02297
1391.00000    0.02369
1391.50000    0.02403
1392.00000    0.02402
1392.50000    0.02367
1393.00000    0.02301
1393.50000    0.02208
1394.00000    0.02090
1394.50000    0.01950
1395.00000    0.01792
1395.50000    0.01616
1396.00000    0.01426
1396.50000    0.01222
1397.00000    0.01006
1397.50000    0.00776
1398.00000    0.00534
1398.50000    0.00279
1399.00000    0.00008
1399.50000   -0.00280
1400.00000   -0.00587
1400.50000   -0.00917
1401.00000   -0.01271
1401.50000   -0.01653
1402.00000   -0.02065
1402.50000   -0.02511
1403.00000   -0.02991
1403.50000   -0.03509
1404.00000   -0.04064
1404.50000   -0.04656
1405.00000   -0.05284
1405.50000   -0.05944
1406.00000   -0.06632
1406.50000   -0.07342
1407.00000   -0.08067
1407.50000   -0.08797
1408.00000   -0.09523
1408.50000   -0.10233
1409.00000   -0.10915
1409.50000   -0.11557
1410.00000   -0.12147
1410.50000   -0.12672
1411.00000   -0.13122
1411.50000   -0.13486
1412.00000   -0.13758
1412.50000   -0.13931
1413.00000   -0.14001
1413.50000   -0.13968
1414.00000   -0.13832
1414.50000   -0.13597
1415.00000   -0.13269
1415.50000   -0.12856
1416.00000   -0.12367
1416.50000   -0.11813
1417.00000   -0.11204
1417.50000   -0.10553
1418.00000   -0.09869
1418.50000   -0.09163
1419.00000   -0.08444
1419.50000   -0.07720
1420.00000   -0.06997
1420.50000   -0.06278
1421.00000   -0.05565
1421.50000   -0.04861
1422.00000   -0.04164
1422.50000   -0.03472
1423.00000   -0.02785
1423.50000   -0.02099
1424.00000   -0.01412
1424.50000   -0.00725
1425.00000   -0.00036
1425.50000    0.00653
1426.00000    0.01340
1426.50000    0.02021
1427.00000    0.02691
1427.50000    0.03342
1428.00000    0.03968
1428.50000    0.04561
1429.00000    0.05114
1429.50000    0.05618
1430.00000    0.06068
1430.50000    0.06458
1431.00000    0.06785
1431.50000    0.07049
1432.00000    0.07251
1432.50000    0.07394
1433.00000    0.07484
1433.50000    0.07530
1434.00000    0.07540
1434.50000    0.07527
1435.00000    0.07502
1435.50000    0.07477
1436.00000    0.07463
1436.50000    0.07472
1437.00000    0.07513
1437.50000    0.07592
1438.00000    0.07715
1438.50000    0.07884
1439.00000    0.08097
1439.50000    0.08353
1440.00000    0.08644
1440.50000    0.08961
1441.00000    0.09293
1441.50000    0.09629
1442.00000    0.09955
1442.50000    0.10257
1443.00000    0.10521
1443.50000    0.10735
1444.00000    0.10887
1444.50000    0.10968
1445.00000    0.10970
1445.50000    0.10889
1446.00000    0.10722
1446.50000    0.10470
1447.00000    0.10136
1447.50000    0.09728
1448.00000    0.09252
1448.50000    0.08721
1449.00000    0.08145
1449.50000    0.07538
1450.00000    0.06914
1450.50000    0.06287
1451.00000    0.05669
1451.50000    0.05074
1452.00000    0.04512
1452.50000    0.03992
1453.00000    0.03521
1453.50000    0.03103
1454.00000    0.02740
1454.50000    0.02431
1455.00000    0.02173
1455.50000    0.01959
1456.00000    0.01782
1456.50000    0.01631
1457.00000    0.01495
1457.50000    0.01362
1458.00000    0.01219
1458.50000    0.01051
1459.00000    0.00847
1459.50000    0.00596
1460.00000    0.00287
1460.50000   -0.00087
1461.00000   -0.00531
1461.50000   -0.01047
1462.00000   -0.01634
1462.50000   -0.02288
1463.00000   -0.03002
1463.50000   -0.03765
1464.00000   -0.04563
1464.50000   -0.05383
1465.00000   -0.06205
1465.50000   -0.07011
1466.00000   -0.07782
1466.50000   -0.08498
1467.00000   -0.09140
1467.50000   -0.09691
1468.00000   -0.10135
1468.50000   -0.10458
1469.00000   -0.10652
1469.50000   -0.10709
1470.00000   -0.10626
1470.50000   -0.10404
1471.00000   -0.10047
1471.50000   -0.09563
1472.00000   -0.08962
1472.50000   -0.08259
1473.00000   -0.07469
1473.50000   -0.06608
1474.00000   -0.05694
1474.50000   -0.04747
1475.00000   -0.03782
1475.50000   -0.02818
1476.00000   -0.01870
1476.50000   -0.00951
1477.00000   -0.00075
1477.50000    0.00751
1478.00000    0.01518
1478.50000    0.02222
1479.00000    0.02859
1479.50000    0.03429
1480.00000    0.03933
1480.50000    0.04371
1481.00000    0.04747
1481.50000    0.05065
1482.00000    0.05327
1482.50000    0.05538
1483.00000    0.05700
1483.50000    0.05816
1484.00000    0.05889
1484.50000    0.05919
1485.00000    0.05909
1485.50000    0.05858
1486.00000    0.05767
1486.50000    0.05637
1487.00000    0.05468
1487.50000    0.05261
1488.00000    0.05017
1488.50000    0.04738
1489.00000    0.04428
1489.50000    0.04089
1490.00000    0.03728
1490.50000    0.03350
1491.00000    0.02961
1491.50000    0.02568
1492.00000    0.02180
1492.50000    0.01803
1493.00000    0.01446
1493.50000    0.01116
1494.00000    0.00819
1494.50000    0.00561
1495.00000    0.00348
1495.50000    0.00181
1496.00000    0.00063
1496.50000   -0.00005
1497.00000   -0.00026
1497.50000   -0.00001
1498.00000    0.00064
1498.50000    0.00164
1499.00000    0.00292
1499.50000    0.00441
1500.00000    0.00602
1500.50000    0.00767
1501.00000    0.00925
1501.50000    0.01069
1502.00000    0.01190
1502.50000    0.01280
1503.00000    0.01332
1503.50000    0.01340
1504.00000    0.01299
1504.50000    0.01204
1505.00000    0.01052
1505.50000    0.00843
1506.00000    0.00574
1506.50000    0.00247
1507.00000   -0.00138
1507.50000   -0.00579
1508.00000   -0.01073
1508.50000   -0.01616
1509.00000   -0.02204
1509.50000   -0.02832
1510.00000   -0.03495
1510.50000   -0.04188
1511.00000   -0.04902
1511.50000   -0.05631
1512.00000   -0.06367
1512.50000   -0.07101
1513.00000   -0.07824
1513.50000   -0.08525
1514.00000   -0.09193
1514.50000   -0.09816
1515.00000   -0.10385
1515.50000   -0.10885
1516.00000   -0.11306
1516.50000   -0.11637
1517.00000   -0.11867
1517.50000   -0.11988
1518.00000   -0.11992
1518.50000   -0.11874
1519.00000   -0.11632
1519.50000   -0.11265
1520.00000   -0.10776
1520.50000   -0.10172
1521.00000   -0.09461
1521.50000   -0.08655
1522.00000   -0.07768
1522.50000   -0.06818
1523.00000   -0.05823
1523.50000   -0.04801
1524.00000   -0.03774
1524.50000   -0.02759
1525.00000   -0.01778
1525.50000   -0.00845
1526.00000    0.00022
1526.50000    0.00812
1527.00000    0.01515
1527.50000    0.02123
1528.00000    0.02633
1528.50000    0.03042
1529.00000    0.03354
1529.50000    0.03570
1530.00000    0.03697
1530.50000    0.03740
1531.00000    0.03707
1531.50000    0.03604
1532.00000    0.03439
1532.50000    0.03218
1533.00000    0.02944
1533.50000    0.02621
1534.00000    0.02253
1534.50000    0.01839
1535.00000    0.01381
1535.50000    0.00878
1536.00000    0.00332
1536.50000   -0.00257
1537.00000   -0.00886
1537.50000   -0.01551
1538.00000   -0.02246
1538.50000   -0.02960
1539.00000   -0.03683
1539.50000   -0.04401
1540.00000   -0.05096
1540.50000   -0.05751
1541.00000   -0.06344
1541.50000   -0.06856
1542.00000   -0.07265
1542.50000   -0.07552
1543.00000   -0.07700
1543.50000   -0.07693
1544.00000   -0.07521
1544.50000   -0.07177
1545.00000   -0.06660
1545.50000   -0.05974
1546.00000   -0.05127
1546.50000   -0.04134
1547.00000   -0.03015
1547.50000   -0.01792
1548.00000   -0.00492
1548.50000    0.00854
1549.00000    0.02217
1549.50000    0.03563
1550.00000    0.04862
1550.50000    0.06083
1551.00000    0.07200
1551.50000    0.08187
1552.00000    0.09025
1552.50000    0.09698
1553.00000    0.10194
1553.50000    0.10507
1554.00000    0.10637
1554.50000    0.10585
1555.00000    0.10360
1555.50000    0.09973
1556.00000    0.09438
1556.50000    0.08773
1557.00000    0.07997
1557.50000    0.07130
1558.00000    0.06195
1558.50000    0.05213
1559.00000    0.04208
1559.50000    0.03202
1560.00000    0.02217
1560.50000    0.01276
1561.00000    0.00400
1561.50000   -0.00390
1562.00000   -0.01072
1562.50000   -0.01624
1563.00000   -0.02026
1563.50000   -0.02256
1564.00000   -0.02293
1564.50000   -0.02113
1565.00000   -0.01696
1565.50000   -0.01017
1566.00000   -0.00053
1566.50000    0.01218
1567.00000    0.02820
1567.50000    0.04774
1568.00000    0.07103
1568.50000    0.09826
1569.00000    0.12961
1569.50000    0.16525
1570.00000    0.20531
1570.50000    0.24990
1571.00000    0.29908
1571.50000    0.35289
1572.00000    0.41132
1572.50000    0.47433
1573.00000    0.54182
1573.50000    0.61366
1574.00000    0.68967
1574.50000    0.76964
1575.00000    0.85330
1575.50000    0.94035
1576.00000    1.03046
1576.50000    1.12325
1577.00000    1.21832
1577.50000    1.31524
1578.00000    1.41353
1578.50000    1.51273
1579.00000    1.61230
1579.50000    1.71171
1580.00000    1.81040
1580.50000    1.90778
1581.00000    2.00324
1581.50000    2.09615
1582.00000    2.18585
1582.50000    2.27168
1583.00000    2.35296
1583.50000    2.42899
1584.00000    2.49909
1584.50000    2.56258
1585.00000    2.61880
1585.50000    2.66711
1586.00000    2.70691
1586.50000    2.73769
1587.00000    2.75897
1587.50000    2.77037
1588.00000    2.77162
1588.50000    2.76253
1589.00000    2.74307
1589.50000    2.71330
1590.00000    2.67342
1590.50000    2.62377
1591.00000    2.56479
1591.50000    2.49706
1592.00000    2.42127
1592.50000    2.33821
1593.00000    2.24874
1593.50000    2.15379
1594.00000    2.05433
1594.50000    1.95136
1595.00000    1.84588
1595.50000    1.73888
1596.00000    1.63131
1596.50000    1.52407
1597.00000    1.41799
1597.50000    1.31382
1598.00000    1.21225
1598.50000    1.11384
1599.00000    1.01907
1599.50000    0.92834
1600.00000    0.84193
1600.50000    0.76008
1601.00000    0.68292
1601.50000    0.61052
1602.00000    0.54291
1602.50000    0.48005
1603.00000    0.42186
1603.50000    0.36826
1604.00000    0.31911
1604.50000    0.27428
1605.00000    0.23361
1605.50000    0.19694
1606.00000    0.16410
1606.50000    0.13493
1607.00000    0.10926
1607.50000    0.08691
1608.00000    0.06770
1608.50000    0.05148
1609.00000    0.03807
1609.50000    0.02729
1610.00000    0.01898
1610.50000    0.01298
1611.00000    0.00911
1611.50000    0.00723
1612.00000    0.00718
1612.50000    0.00881
1613.00000    0.01199
1613.50000    0.01658
1614.00000    0.02245
1614.50000    0.02946
1615.00000    0.03749
1615.50000    0.04642
1616.00000    0.05610
1616.50000    0.06641
1617.00000    0.07720
1617.50000    0.08832
1618.00000    0.09962
1618.50000    0.11092
1619.00000    0.12207
1619.50000    0.13289
1620.00000    0.14320
1620.50000    0.15285
1621.00000    0.16167
1621.50000    0.16953
1622.00000    0.17629
1622.50000    0.18185
1623.00000    0.18615
1623.50000    0.18912
1624.00000    0.19077
1624.50000    0.19109
1625.00000    0.19014
1625.50000    0.18797
1626.00000    0.18467
1626.50000    0.18035
1627.00000    0.17511
1627.50000    0.16907
1628.00000    0.16234
1628.50000    0.15501
1629.00000    0.14718
1629.50000    0.13890
1630.00000    0.13024
1630.50000    0.12122
1631.00000    0.11185
1631.50000    0.10211
1632.00000    0.09198
1632.50000    0.08142
1633.00000    0.07041
1633.50000    0.05890
1634.00000    0.04687
1634.50000    0.03432
1635.00000    0.02126
1635.50000    0.00773
1636.00000   -0.00617
1636.50000   -0.02036
1637.00000   -0.03468
1637.50000   -0.04897
1638.00000   -0.06303
1638.50000   -0.07665
1639.00000   -0.08959
1639.50000   -0.10162
1640.00000   -0.11251
1640.50000   -0.12203
1641.00000   -0.12997
1641.50000   -0.13615
1642.00000   -0.14041
1642.50000   -0.14265
1643.00000   -0.14278
1643.50000   -0.14078
1644.00000   -0.13667
1644.50000   -0.13050
1645.00000   -0.12239
1645.50000   -0.11249
1646.00000   -0.10097
1646.50000   -0.08807
1647.00000   -0.07403
1647.50000   -0.05912
1648.00000   -0.04364
1648.50000   -0.02787
1649.00000   -0.01213
1649.50000    0.00329
1650.00000    0.01809
1650.50000    0.03199
1651.00000    0.04473
1651.50000    0.05606
1652.00000    0.06576
1652.50000    0.07366
1653.00000    0.07959
1653.50000    0.08345
1654.00000    0.08515
1654.50000    0.08467
1655.00000    0.08201
1655.50000    0.07722
1656.00000    0.07039
1656.50000    0.06165
1657.00000    0.05118
1657.50000    0.03917
1658.00000    0.02586
1658.50000    0.01150
1659.00000   -0.00362
1659.50000   -0.01924
1660.00000   -0.03505
1660.50000   -0.05078
1661.00000   -0.06616
1661.50000   -0.08094
1662.00000   -0.09489
1662.50000   -0.10780
1663.00000   -0.11953
1663.50000   -0.12994
1664.00000   -0.13893
1664.50000   -0.14646
1665.00000   -0.15249
1665.50000   -0.15704
1666.00000   -0.16014
1666.50000   -0.16185
1667.00000   -0.16224
1667.50000   -0.16139
1668.00000   -0.15939
1668.50000   -0.15634
1669.00000   -0.15230
1669.50000   -0.14736
1670.00000   -0.14158
1670.50000   -0.13502
1671.00000   -0.12772
1671.50000   -0.11971
1672.00000   -0.11102
1672.50000   -0.10168
1673.00000   -0.09170
1673.50000   -0.08112
1674.00000   -0.06996
1674.50000   -0.05828
1675.00000   -0.04612
1675.50000   -0.03356
1676.00000   -0.02069
1676.50000   -0.00762
1677.00000    0.00555
1677.50000    0.01869
1678.00000    0.03166
1678.50000    0.04432
1679.00000    0.05653
1679.50000    0.06817
1680.00000    0.07911
1680.50000    0.08923
1681.00000    0.09845
1681.50000    0.10668
1682.00000    0.11388
1682.50000    0.12000
1683.00000    0.12504
1683.50000    0.12899
1684.00000    0.13188
1684.50000    0.13374
1685.00000    0.13461
1685.50000    0.13454
1686.00000    0.13359
1686.50000    0.13182
1687.00000    0.12928
1687.50000    0.12603
1688.00000    0.12212
1688.50000    0.11761
1689.00000    0.11253
1689.50000    0.10696
1690.00000    0.10092
1690.50000    0.09449
1691.00000    0.08771
1691.50000    0.08065
1692.00000    0.07337
1692.50000    0.06595
1693.00000    0.05848
1693.50000    0.05101
1694.00000    0.04366
1694.50000    0.03648
1695.00000    0.02957
1695.50000    0.02300
1696.00000    0.01683
1696.50000    0.01111
1697.00000    0.00589
1697.50000    0.00117
1698.00000   -0.00303
1698.50000   -0.00673
1699.00000   -0.00995
1699.50000   -0.01275
1700.00000   -0.01517
1700.50000   -0.01729
1701.00000   -0.01917
1701.50000   -0.02091
1702.00000   -0.02256
1702.50000   -0.02421
1703.00000   -0.02594
1703.50000   -0.02780
1704.00000   -0.02986
1704.50000   -0.03215
1705.00000   -0.03472
1705.50000   -0.03758
1706.00000   -0.04074
1706.50000   -0.04420
1707.00000   -0.04794
1707.50000   -0.05194
1708.00000   -0.05615
1708.50000   -0.06052
1709.00000   -0.06499
1709.50000   -0.06948
1710.00000   -0.07390
1710.50000   -0.07815
1711.00000   -0.08212
1711.50000   -0.08570
1712.00000   -0.08877
1712.50000   -0.09120
1713.00000   -0.09286
1713.50000   -0.09365
1714.00000   -0.09344
1714.50000   -0.09214
1715.00000   -0.08967
1715.50000   -0.08599
1716.00000   -0.08107
1716.50000   -0.07491
1717.00000   -0.06755
1717.50000   -0.05906
1718.00000   -0.04954
1718.50000   -0.03913
1719.00000   -0.02799
1719.50000   -0.01630
1720.00000   -0.00426
1720.50000    0.00791
1721.00000    0.02001
1721.50000    0.03182
1722.00000    0.04317
1722.50000    0.05387
1723.00000    0.06378
1723.50000    0.07279
1724.00000    0.08080
1724.50000    0.08777
1725.00000    0.09368
1725.50000    0.09855
1726.00000    0.10239
1726.50000    0.10528
1727.00000    0.10726
1727.50000    0.10842
1728.00000    0.10884
1728.50000    0.10857
1729.00000    0.10769
1729.50000    0.10623
1730.00000    0.10423
1730.50000    0.10170
1731.00000    0.09867
1731.50000    0.09511
1732.00000    0.09101
1732.50000    0.08636
1733.00000    0.08114
1733.50000    0.07534
1734.00000    0.06898
1734.50000    0.06206
1735.00000    0.05462
1735.50000    0.04674
1736.00000    0.03848
1736.50000    0.02996
1737.00000    0.02131
1737.50000    0.01266
1738.00000    0.00416
1738.50000   -0.00401
1739.00000   -0.01171
1739.50000   -0.01877
1740.00000   -0.02504
1740.50000   -0.03039
1741.00000   -0.03471
1741.50000   -0.03789
1742.00000   -0.03988
1742.50000   -0.04063
1743.00000   -0.04013
1743.50000   -0.03837
1744.00000   -0.03541
1744.50000   -0.03130
1745.00000   -0.02612
1745.50000   -0.01998
1746.00000   -0.01300
1746.50000   -0.00531
1747.00000    0.00292
1747.50000    0.01155
1748.00000    0.02039
1748.50000    0.02927
1749.00000    0.03800
1749.50000    0.04639
1750.00000    0.05425
1750.50000    0.06141
1751.00000    0.06769
1751.50000    0.07292
1752.00000    0.07697
1752.50000    0.07969
1753.00000    0.08100
1753.50000    0.08082
1754.00000    0.07911
1754.50000    0.07586
1755.00000    0.07111
1755.50000    0.06492
1756.00000    0.05739
1756.50000    0.04867
1757.00000    0.03893
1757.50000    0.02835
1758.00000    0.01715
1758.50000    0.00556
1759.00000   -0.00619
1759.50000   -0.01786
1760.00000   -0.02924
1760.50000   -0.04011
1761.00000   -0.05029
1761.50000   -0.05963
1762.00000   -0.06801
1762.50000   -0.07533
1763.00000   -0.08154
1763.50000   -0.08663
1764.00000   -0.09063
1764.50000   -0.09357
1765.00000   -0.09554
1765.50000   -0.09664
1766.00000   -0.09697
1766.50000   -0.09666
1767.00000   -0.09582
1767.50000   -0.09458
1768.00000   -0.09303
1768.50000   -0.09127
1769.00000   -0.08938
1769.50000   -0.08740
1770.00000   -0.08538
1770.50000   -0.08334
1771.00000   -0.08126
1771.50000   -0.07915
1772.00000   -0.07696
1772.50000   -0.07468
1773.00000   -0.07226
1773.50000   -0.06967
1774.00000   -0.06687
1774.50000   -0.06385
1775.00000   -0.06059
1775.50000   -0.05709
1776.00000   -0.05336
1776.50000   -0.04942
1777.00000   -0.04531
1777.50000   -0.04108
1778.00000   -0.03678
1778.50000   -0.03249
1779.00000   -0.02825
1779.50000   -0.02415
1780.00000   -0.02024
1780.50000   -0.01660
1781.00000   -0.01326
1781.50000   -0.01028
1782.00000   -0.00769
1782.50000   -0.00551
1783.00000   -0.00376
1783.50000   -0.00242
1784.00000   -0.00148
1784.50000   -0.00092
1785.00000   -0.00070
1785.50000   -0.00077
1786.00000   -0.00106
1786.50000   -0.00152
1787.00000   -0.00207
1787.50000   -0.00262
1788.00000   -0.00310
1788.50000   -0.00342
1789.00000   -0.00348
1789.50000   -0.00320
1790.00000   -0.00250
1790.50000   -0.00130
1791.00000    0.00049
1791.50000    0.00290
1792.00000    0.00600
1792.50000    0.00981
1793.00000    0.01434
1793.50000    0.01959
1794.00000    0.02550
1794.50000    0.03202
1795.00000    0.03907
1795.50000    0.04653
1796.00000    0.05426
1796.50000    0.06211
1797.00000    0.06990
1797.50000    0.07745
1798.00000    0.08456
1798.50000    0.09104
1799.00000    0.09670
1799.50000    0.10136
1800.00000    0.10486
1800.50000    0.10706
1801.00000    0.10785
1801.50000    0.10716
1802.00000    0.10495
1802.50000    0.10122
1803.00000    0.09600
1803.50000    0.08936
1804.00000    0.08140
1804.50000    0.07227
1805.00000    0.06213
1805.50000    0.05115
1806.00000    0.03953
1806.50000    0.02748
1807.00000    0.01520
1807.50000    0.00289
1808.00000   -0.00926
1808.50000   -0.02107
1809.00000   -0.03238
1809.50000   -0.04305
1810.00000   -0.05298
1810.50000   -0.06207
1811.00000   -0.07024
1811.50000   -0.07745
1812.00000   -0.08368
1812.50000   -0.08889
1813.00000   -0.09310
1813.50000   -0.09632
1814.00000   -0.09857
1814.50000   -0.09986
1815.00000   -0.10024
1815.50000   -0.09975
1816.00000   -0.09841
1816.50000   -0.09627
1817.00000   -0.09337
1817.50000   -0.08976
1818.00000   -0.08549
1818.50000   -0.08059
1819.00000   -0.07512
1819.50000   -0.06915
1820.00000   -0.06272
1820.50000   -0.05590
1821.00000   -0.04876
1821.50000   -0.04135
1822.00000   -0.03376
1822.50000   -0.02605
1823.00000   -0.01828
1823.50000   -0.01052
1824.00000   -0.00283
1824.50000    0.00474
1825.00000    0.01215
1825.50000    0.01935
1826.00000    0.02633
1826.50000    0.03305
1827.00000    0.03952
1827.50000    0.04574
1828.00000    0.05170
1828.50000    0.05742
1829.00000    0.06292
1829.50000    0.06820
1830.00000    0.07329
1830.50000    0.07820
1831.00000    0.08292
1831.50000    0.08747
1832.00000    0.09181
1832.50000    0.09594
1833.00000    0.09981
1833.50000    0.10338
1834.00000    0.10660
1834.50000    0.10938
1835.00000    0.11167
1835.50000    0.11337
1836.00000    0.11440
1836.50000    0.11468
1837.00000    0.11412
1837.50000    0.11266
1838.00000    0.11021
1838.50000    0.10673
1839.00000    0.10219
1839.50000    0.09656
1840.00000    0.08984
1840.50000    0.08206
1841.00000    0.07325
1841.50000    0.06348
1842.00000    0.05282
1842.50000    0.04137
1843.00000    0.02924
1843.50000    0.01656
1844.00000    0.00346
1844.50000   -0.00992
1845.00000   -0.02344
1845.50000   -0.03695
1846.00000   -0.05030
1846.50000   -0.06335
1847.00000   -0.07595
1847.50000   -0.08799
1848.00000   -0.09932
1848.50000   -0.10983
1849.00000   -0.11940
1849.50000   -0.12795
1850.00000   -0.13537
1850.50000   -0.14159
1851.00000   -0.14655
1851.50000   -0.15019
1852.00000   -0.15246
1852.50000   -0.15336
1853.00000   -0.15288
1853.50000   -0.15102
1854.00000   -0.14782
1854.50000   -0.14333
1855.00000   -0.13761
1855.50000   -0.13075
1856.00000   -0.12285
1856.50000   -0.11403
1857.00000   -0.10441
1857.50000   -0.09415
1858.00000   -0.08337
1858.50000   -0.07223
1859.00000   -0.06087
1859.50000   -0.04945
1860.00000   -0.03809
1860.50000   -0.02692
1861.00000   -0.01605
1861.50000   -0.00559
1862.00000    0.00438
1862.50000    0.01378
1863.00000    0.02257
1863.50000    0.03070
1864.00000    0.03813
1864.50000    0.04486
1865.00000    0.05088
1865.50000    0.05618
1866.00000    0.06077
1866.50000    0.06468
1867.00000    0.06791
1867.50000    0.07049
1868.00000    0.07244
1868.50000    0.07379
1869.00000    0.07456
1869.50000    0.07479
1870.00000    0.07449
1870.50000    0.07371
1871.00000    0.07247
1871.50000    0.07081
1872.00000    0.06876
1872.50000    0.06634
1873.00000    0.06358
1873.50000    0.06053
1874.00000    0.05720
1874.50000    0.05362
1875.00000    0.04982
1875.50000    0.04582
1876.00000    0.04165
1876.50000    0.03735
1877.00000    0.03294
1877.50000    0.02847
1878.00000    0.02398
1878.50000    0.01954
1879.00000    0.01521
1879.50000    0.01106
1880.00000    0.00718
1880.50000    0.00367
1881.00000    0.00062
1881.50000   -0.00187
1882.00000   -0.00369
1882.50000   -0.00476
1883.00000   -0.00501
1883.50000   -0.00438
1884.00000   -0.00283
1884.50000   -0.00035
1885.00000    0.00302
1885.50000    0.00722
1886.00000    0.01216
1886.50000    0.01771
1887.00000    0.02371
1887.50000    0.02998
1888.00000    0.03630
1888.50000    0.04246
1889.00000    0.04825
1889.50000    0.05346
1890.00000    0.05790
1890.50000    0.06140
1891.00000    0.06384
1891.50000    0.06513
1892.00000    0.06525
1892.50000    0.06419
1893.00000    0.06203
1893.50000    0.05886
1894.00000    0.05485
1894.50000    0.05016
1895.00000    0.04500
1895.50000    0.03959
1896.00000    0.03416
1896.50000    0.02893
1897.00000    0.02409
1897.50000    0.01982
1898.00000    0.01627
1898.50000    0.01356
1899.00000    0.01176
1899.50000    0.01091
1900.00000    0.01099
1900.50000    0.01197
1901.00000    0.01379
1901.50000    0.01635
1902.00000    0.01952
1902.50000    0.02320
1903.00000    0.02723
1903.50000    0.03149
1904.00000    0.03583
1904.50000    0.04014
1905.00000    0.04429
1905.50000    0.04817
1906.00000    0.05169
1906.50000    0.05474
1907.00000    0.05725
1907.50000    0.05915
1908.00000    0.06034
1908.50000    0.06076
1909.00000    0.06035
1909.50000    0.05903
1910.00000    0.05672
1910.50000    0.05338
1911.00000    0.04893
1911.50000    0.04333
1912.00000    0.03654
1912.50000    0.02853
1913.00000    0.01930
1913.50000    0.00887
1914.00000   -0.00273
1914.50000   -0.01542
1915.00000   -0.02912
1915.50000   -0.04370
1916.00000   -0.05902
1916.50000   -0.07490
1917.00000   -0.09116
1917.50000   -0.10759
1918.00000   -0.12396
1918.50000   -0.14004
1919.00000   -0.15560
1919.50000   -0.17039
1920.00000   -0.18417
1920.50000   -0.19673
1921.00000   -0.20784
1921.50000   -0.21729
1922.00000   -0.22489
1922.50000   -0.23049
1923.00000   -0.23393
1923.50000   -0.23510
1924.00000   -0.23390
1924.50000   -0.23027
1925.00000   -0.22420
1925.50000   -0.21568
1926.00000   -0.20477
1926.50000   -0.19156
1927.00000   -0.17619
1927.50000   -0.15882
1928.00000   -0.13968
1928.50000   -0.11904
1929.00000   -0.09718
1929.50000   -0.07445
1930.00000   -0.05120
1930.50000   -0.02782
1931.00000   -0.00469
1931.50000    0.01778
1932.00000    0.03921
1932.50000    0.05924
1933.00000    0.07751
1933.50000    0.09373
1934.00000    0.10765
1934.50000    0.11905
1935.00000    0.12779
1935.50000    0.13380
1936.00000    0.13707
1936.50000    0.13764
1937.00000    0.13562
1937.50000    0.13118
1938.00000    0.12454
1938.50000    0.11596
1939.00000    0.10573
1939.50000    0.09416
1940.00000    0.08159
1940.50000    0.06835
1941.00000    0.05475
1941.50000    0.04111
1942.00000    0.02772
1942.50000    0.01484
1943.00000    0.00269
1943.50000   -0.00853
1944.00000   -0.01865
1944.50000   -0.02755
1945.00000   -0.03515
1945.50000   -0.04136
1946.00000   -0.04616
1946.50000   -0.04953
1947.00000   -0.05148
1947.50000   -0.05203
1948.00000   -0.05123
1948.50000   -0.04913
1949.00000   -0.04578
1949.50000   -0.04128
1950.00000   -0.03570
1950.50000   -0.02915
1951.00000   -0.02174
1951.50000   -0.01360
1952.00000   -0.00486
1952.50000    0.00432
1953.00000    0.01378
1953.50000    0.02334
1954.00000    0.03282
1954.50000    0.04204
1955.00000    0.05079
1955.50000    0.05891
1956.00000    0.06619
1956.50000    0.07248
1957.00000    0.07763
1957.50000    0.08150
1958.00000    0.08401
1958.50000    0.08509
1959.00000    0.08469
1959.50000    0.08282
1960.00000    0.07953
1960.50000    0.07488
1961.00000    0.06897
1961.50000    0.06196
1962.00000    0.05400
1962.50000    0.04528
1963.00000    0.03601
1963.50000    0.02639
1964.00000    0.01664
1964.50000    0.00697
1965.00000   -0.00239
1965.50000   -0.01128
1966.00000   -0.01949
1966.50000   -0.02688
1967.00000   -0.03332
1967.50000   -0.03870
1968.00000   -0.04294
1968.50000   -0.04598
1969.00000   -0.04780
1969.50000   -0.04839
1970.00000   -0.04778
1970.50000   -0.04602
1971.00000   -0.04318
1971.50000   -0.03933
1972.00000   -0.03460
1972.50000   -0.02909
1973.00000   -0.02294
1973.50000   -0.01630
1974.00000   -0.00933
1974.50000   -0.00218
1975.00000    0.00498
1975.50000    0.01200
1976.00000    0.01870
1976.50000    0.02495
1977.00000    0.03060
1977.50000    0.03554
1978.00000    0.03965
1978.50000    0.04286
1979.00000    0.04513
1979.50000    0.04643
1980.00000    0.04677
1980.50000    0.04621
1981.00000    0.04482
1981.50000    0.04270
1982.00000    0.04001
1982.50000    0.03690
1983.00000    0.03355
1983.50000    0.03016
1984.00000    0.02694
1984.50000    0.02407
1985.00000    0.02174
1985.50000    0.02012
1986.00000    0.01936
1986.50000    0.01954
1987.00000    0.02074
1987.50000    0.02297
1988.00000    0.02621
1988.50000    0.03037
1989.00000    0.03533
1989.50000    0.04092
1990.00000    0.04694
1990.50000    0.05314
1991.00000    0.05928
1991.50000    0.06507
1992.00000    0.07026
1992.50000    0.07456
1993.00000    0.07775
1993.50000    0.07961
1994.00000    0.07996
1994.50000    0.07867
1995.00000    0.07568
1995.50000    0.07095
1996.00000    0.06452
1996.50000    0.05649
1997.00000    0.04700
1997.50000    0.03624
1998.00000    0.02445
1998.50000    0.01190
1999.00000   -0.00113
1999.50000   -0.01433
2000.00000   -0.02739
2000.50000   -0.04003
2001.00000   -0.05194
2001.50000   -0.06289
2002.00000   -0.07266
2002.50000   -0.08106
2003.00000   -0.08796
2003.50000   -0.09327
2004.00000   -0.09695
2004.50000   -0.09900
2005.00000   -0.09947
2005.50000   -0.09843
2006.00000   -0.09601
2006.50000   -0.09232
2007.00000   -0.08754
2007.50000   -0.08183
2008.00000   -0.07536
2008.50000   -0.06830
2009.00000   -0.06083
2009.50000   -0.05309
2010.00000   -0.04525
2010.50000   -0.03743
2011.00000   -0.02976
2011.50000   -0.02236
2012.00000   -0.01532
2012.50000   -0.00875
2013.00000   -0.00271
2013.50000    0.00271
2014.00000    0.00746
2014.50000    0.01147
2015.00000    0.01471
2015.50000    0.01713
2016.00000    0.01872
2016.50000    0.01948
2017.00000    0.01943
2017.50000    0.01859
2018.00000    0.01703
2018.50000    0.01483
2019.00000    0.01209
2019.50000    0.00894
2020.00000    0.00551
2020.50000    0.00196
2021.00000   -0.00156
2021.50000   -0.00487
2022.00000   -0.00782
2022.50000   -0.01028
2023.00000   -0.01212
2023.50000   -0.01323
2024.00000   -0.01357
2024.50000   -0.01308
2025.00000   -0.01179
2025.50000   -0.00973
2026.00000   -0.00699
2026.50000   -0.00369
2027.00000    0.00005
2027.50000    0.00405
2028.00000    0.00814
2028.50000    0.01214
2029.00000    0.01587
2029.50000    0.01919
2030.00000    0.02194
2030.50000    0.02400
2031.00000    0.02530
2031.50000    0.02578
2032.00000    0.02542
2032.50000    0.02423
2033.00000    0.02226
2033.50000    0.01958
2034.00000    0.01626
2034.50000    0.01242
2035.00000    0.00814
2035.50000    0.00355
2036.00000   -0.00127
2036.50000   -0.00621
2037.00000   -0.01120
2037.50000   -0.01618
2038.00000   -0.02108
2038.50000   -0.02586
2039.00000   -0.03050
2039.50000   -0.03495
2040.00000   -0.03921
2040.50000   -0.04324
2041.00000   -0.04701
2041.50000   -0.05048
2042.00000   -0.05362
2042.50000   -0.05635
2043.00000   -0.05861
2043.50000   -0.06033
2044.00000   -0.06142
2044.50000   -0.06180
2045.00000   -0.06138
2045.50000   -0.06009
2046.00000   -0.05785
2046.50000   -0.05463
2047.00000   -0.05039
2047.50000   -0.04513
2048.00000   -0.03887
2048.50000   -0.03168
2049.00000   -0.02364
2049.50000   -0.01486
2050.00000   -0.00549
2050.50000    0.00430
2051.00000    0.01433
2051.50000    0.02440
2052.00000    0.03430
2052.50000    0.04382
2053.00000    0.05276
2053.50000    0.06092
2054.00000    0.06813
2054.50000    0.07424
2055.00000    0.07913
2055.50000    0.08270
2056.00000    0.08490
2056.50000    0.08569
2057.00000    0.08510
2057.50000    0.08316
2058.00000    0.07995
2058.50000    0.07555
2059.00000    0.07010
2059.50000    0.06371
2060.00000    0.05655
2060.50000    0.04877
2061.00000    0.04051
2061.50000    0.03193
2062.00000    0.02319
2062.50000    0.01440
2063.00000    0.00570
2063.50000   -0.00280
2064.00000   -0.01100
2064.50000   -0.01882
2065.00000   -0.02619
2065.50000   -0.03302
2066.00000   -0.03927
2066.50000   -0.04486
2067.00000   -0.04974
2067.50000   -0.05384
2068.00000   -0.05708
2068.50000   -0.05938
2069.00000   -0.06067
2069.50000   -0.06083
2070.00000   -0.05977
2070.50000   -0.05739
2071.00000   -0.05358
2071.50000   -0.04824
2072.00000   -0.04131
2072.50000   -0.03270
2073.00000   -0.02237
2073.50000   -0.01031
2074.00000    0.00345
2074.50000    0.01888
2075.00000    0.03586
2075.50000    0.05425
2076.00000    0.07389
2076.50000    0.09453
2077.00000    0.11594
2077.50000    0.13783
2078.00000    0.15987
2078.50000    0.18176
2079.00000    0.20314
2079.50000    0.22369
2080.00000    0.24309
2080.50000    0.26104
2081.00000    0.27727
2081.50000    0.29154
2082.00000    0.30366
2082.50000    0.31348
2083.00000    0.32090
2083.50000    0.32588
2084.00000    0.32841
2084.50000    0.32855
2085.00000    0.32638
2085.50000    0.32202
2086.00000    0.31563
2086.50000    0.30738
2087.00000    0.29744
2087.50000    0.28602
2088.00000    0.27331
2088.50000    0.25948
2089.00000    0.24472
2089.50000    0.22918
2090.00000    0.21302
2090.50000    0.19635
2091.00000    0.17930
2091.50000    0.16196
2092.00000    0.14443
2092.50000    0.12680
2093.00000    0.10915
2093.50000    0.09156
2094.00000    0.07414
2094.50000    0.05699
2095.00000    0.04021
2095.50000    0.02392
2096.00000    0.00827
2096.50000   -0.00660
2097.00000   -0.02056
2097.50000   -0.03346
2098.00000   -0.04514
2098.50000   -0.05549
2099.00000   -0.06439
2099.50000   -0.07173
2100.00000   -0.07745
2100.50000   -0.08150
2101.00000   -0.08386
2101.50000   -0.08456
2102.00000   -0.08364
2102.50000   -0.08117
2103.00000   -0.07726
2103.50000   -0.07203
2104.00000   -0.06560
2104.50000   -0.05814
2105.00000   -0.04979
2105.50000   -0.04072
2106.00000   -0.03109
2106.50000   -0.02105
2107.00000   -0.01075
2107.50000   -0.00034
2108.00000    0.01004
2108.50000    0.02025
2109.00000    0.03016
2109.50000    0.03962
2110.00000    0.04850
2110.50000    0.05667
2111.00000    0.06396
2111.50000    0.07025
2112.00000    0.07540
2112.50000    0.07927
2113.00000    0.08174
2113.50000    0.08271
2114.00000    0.08210
2114.50000    0.07987
2115.00000    0.07602
2115.50000    0.07057
2116.00000    0.06360
2116.50000    0.05525
2117.00000    0.04567
2117.50000    0.03508
2118.00000    0.02372
2118.50000    0.01187
2119.00000   -0.00018
2119.50000   -0.01215
2120.00000   -0.02373
2120.50000   -0.03466
2121.00000   -0.04470
2121.50000   -0.05362
2122.00000   -0.06128
2122.50000   -0.06756
2123.00000   -0.07240
2123.50000   -0.07579
2124.00000   -0.07778
2124.50000   -0.07847
2125.00000   -0.07797
2125.50000   -0.07645
2126.00000   -0.07409
2126.50000   -0.07107
2127.00000   -0.06757
2127.50000   -0.06378
2128.00000   -0.05985
2128.50000   -0.05590
2129.00000   -0.05206
2129.50000   -0.04837
2130.00000   -0.04489
2130.50000   -0.04163
2131.00000   -0.03857
2131.50000   -0.03568
2132.00000   -0.03290
2132.50000   -0.03017
2133.00000   -0.02744
2133.50000   -0.02463
2134.00000   -0.02171
2134.50000   -0.01863
2135.00000   -0.01538
2135.50000   -0.01195
2136.00000   -0.00836
2136.50000   -0.00465
2137.00000   -0.00087
2137.50000    0.00291
2138.00000    0.00662
2138.50000    0.01017
2139.00000    0.01347
2139.50000    0.01644
2140.00000    0.01901
2140.50000    0.02111
2141.00000    0.02269
2141.50000    0.02372
2142.00000    0.02417
2142.50000    0.02406
2143.00000    0.02342
2143.50000    0.02228
2144.00000    0.02071
2144.50000    0.01879
2145.00000    0.01662
2145.50000    0.01431
2146.00000    0.01195
2146.50000    0.00968
2147.00000    0.00761
2147.50000    0.00583
2148.00000    0.00444
2148.50000    0.00353
2149.00000    0.00317
2149.50000    0.00339
2150.00000    0.00423
2150.50000    0.00568
2151.00000    0.00772
2151.50000    0.01031
2152.00000    0.01339
2152.50000    0.01689
2153.00000    0.02072
2153.50000    0.02477
2154.00000    0.02896
2154.50000    0.03316
2155.00000    0.03729
2155.50000    0.04125
2156.00000    0.04495
2156.50000    0.04833
2157.00000    0.05131
2157.50000    0.05386
2158.00000    0.05593
2158.50000    0.05751
2159.00000    0.05857
2159.50000    0.05912
2160.00000    0.05916
2160.50000    0.05870
2161.00000    0.05774
2161.50000    0.05631
2162.00000    0.05442
2162.50000    0.05207
2163.00000    0.04930
2163.50000    0.04611
2164.00000    0.04253
2164.50000    0.03857
2165.00000    0.03425
2165.50000    0.02961
2166.00000    0.02468
2166.50000    0.01949
2167.00000    0.01408
2167.50000    0.00851
2168.00000    0.00283
2168.50000   -0.00291
2169.00000   -0.00863
2169.50000   -0.01427
2170.00000   -0.01978
2170.50000   -0.02508
2171.00000   -0.03010
2171.50000   -0.03479
2172.00000   -0.03908
2172.50000   -0.04292
2173.00000   -0.04626
2173.50000   -0.04905
2174.00000   -0.05124
2174.50000   -0.05280
2175.00000   -0.05370
2175.50000   -0.05389
2176.00000   -0.05336
2176.50000   -0.05209
2177.00000   -0.05007
2177.50000   -0.04730
2178.00000   -0.04378
2178.50000   -0.03954
2179.00000   -0.03460
2179.50000   -0.02902
2180.00000   -0.02286
2180.50000   -0.01621
2181.00000   -0.00917
2181.50000   -0.00184
2182.00000    0.00563
2182.50000    0.01310
2183.00000    0.02041
2183.50000    0.02741
2184.00000    0.03394
2184.50000    0.03983
2185.00000    0.04494
2185.50000    0.04914
2186.00000    0.05232
2186.50000    0.05439
2187.00000    0.05531
2187.50000    0.05504
2188.00000    0.05360
2188.50000    0.05104
2189.00000    0.04744
2189.50000    0.04292
2190.00000    0.03763
2190.50000    0.03174
2191.00000    0.02543
2191.50000    0.01890
2192.00000    0.01236
2192.50000    0.00601
2193.00000    0.00003
2193.50000   -0.00541
2194.00000   -0.01018
2194.50000   -0.01416
2195.00000   -0.01729
2195.50000   -0.01953
2196.00000   -0.02089
2196.50000   -0.02143
2197.00000   -0.02121
2197.50000   -0.02036
2198.00000   -0.01903
2198.50000   -0.01736
2199.00000   -0.01554
2199.50000   -0.01374
2200.00000   -0.01213
2200.50000   -0.01087
2201.00000   -0.01010
2201.50000   -0.00992
2202.00000   -0.01042
2202.50000   -0.01164
2203.00000   -0.01359
2203.50000   -0.01625
2204.00000   -0.01954
2204.50000   -0.02338
2205.00000   -0.02765
2205.50000   -0.03220
2206.00000   -0.03689
2206.50000   -0.04154
2207.00000   -0.04599
2207.50000   -0.05007
2208.00000   -0.05365
2208.50000   -0.05657
2209.00000   -0.05872
2209.50000   -0.06000
2210.00000   -0.06035
2210.50000   -0.05971
2211.00000   -0.05806
2211.50000   -0.05541
2212.00000   -0.05176
2212.50000   -0.04718
2213.00000   -0.04172
2213.50000   -0.03545
2214.00000   -0.02848
2214.50000   -0.02091
2215.00000   -0.01285
2215.50000   -0.00443
2216.00000    0.00422
2216.50000    0.01297
2217.00000    0.02167
2217.50000    0.03019
2218.00000    0.03838
2218.50000    0.04612
2219.00000    0.05326
2219.50000    0.05969
2220.00000    0.06529
2220.50000    0.06997
2221.00000    0.07363
2221.50000    0.07623
2222.00000    0.07771
2222.50000    0.07805
2223.00000    0.07726
2223.50000    0.07536
2224.00000    0.07239
2224.50000    0.06842
2225.00000    0.06354
2225.50000    0.05784
2226.00000    0.05144
2226.50000    0.04446
2227.00000    0.03703
2227.50000    0.02928
2228.00000    0.02133
2228.50000    0.01330
2229.00000    0.00531
2229.50000   -0.00253
2230.00000   -0.01012
2230.50000   -0.01739
2231.00000   -0.02425
2231.50000   -0.03066
2232.00000   -0.03654
2232.50000   -0.04188
2233.00000   -0.04664
2233.50000   -0.05080
2234.00000   -0.05437
2234.50000   -0.05734
2235.00000   -0.05972
2235.50000   -0.06155
2236.00000   -0.06286
2236.50000   -0.06368
2237.00000   -0.06408
2237.50000   -0.06411
2238.00000   -0.06384
2238.50000   -0.06334
2239.00000   -0.06268
2239.50000   -0.06192
2240.00000   -0.06114
2240.50000   -0.06039
2241.00000   -0.05973
2241.50000   -0.05918
2242.00000   -0.05877
2242.50000   -0.05849
2243.00000   -0.05833
2243.50000   -0.05826
2244.00000   -0.05822
2244.50000   -0.05816
2245.00000   -0.05800
2245.50000   -0.05766
2246.00000   -0.05706
2246.50000   -0.05613
2247.00000   -0.05481
2247.50000   -0.05304
2248.00000   -0.05080
2248.50000   -0.04808
2249.00000   -0.04488
2249.50000   -0.04124
2250.00000   -0.03722
2250.50000   -0.03289
2251.00000   -0.02834
2251.50000   -0.02365
2252.00000   -0.01891
2252.50000   -0.01422
2253.00000   -0.00965
2253.50000   -0.00526
2254.00000   -0.00109
2254.50000    0.00285
2255.00000    0.00657
2255.50000    0.01008
2256.00000    0.01345
2256.50000    0.01672
2257.00000    0.01998
2257.50000    0.02328
2258.00000    0.02669
2258.50000    0.03026
2259.00000    0.03403
2259.50000    0.03799
2260.00000    0.04212
2260.50000    0.04639
2261.00000    0.05072
2261.50000    0.05501
2262.00000    0.05916
2262.50000    0.06306
2263.00000    0.06658
2263.50000    0.06963
2264.00000    0.07212
2264.50000    0.07400
2265.00000    0.07525
2265.50000    0.07587
2266.00000    0.07593
2266.50000    0.07552
2267.00000    0.07476
2267.50000    0.07380
2268.00000    0.07282
2268.50000    0.07199
2269.00000    0.07148
2269.50000    0.07145
2270.00000    0.07202
2270.50000    0.07329
2271.00000    0.07530
2271.50000    0.07804
2272.00000    0.08146
2272.50000    0.08546
2273.00000    0.08988
2273.50000    0.09453
2274.00000    0.09920
2274.50000    0.10367
2275.00000    0.10768
2275.50000    0.11103
2276.00000    0.11349
2276.50000    0.11489
2277.00000    0.11509
2277.50000    0.11399
2278.00000    0.11153
2278.50000    0.10771
2279.00000    0.10257
2279.50000    0.09618
2280.00000    0.08865
2280.50000    0.08011
2281.00000    0.07072
2281.50000    0.06064
2282.00000    0.05004
2282.50000    0.03908
2283.00000    0.02792
2283.50000    0.01671
2284.00000    0.00557
2284.50000   -0.00536
2285.00000   -0.01598
2285.50000   -0.02619
2286.00000   -0.03590
2286.50000   -0.04503
2287.00000   -0.05350
2287.50000   -0.06124
2288.00000   -0.06817
2288.50000   -0.07422
2289.00000   -0.07933
2289.50000   -0.08343
2290.00000   -0.08648
2290.50000   -0.08844
2291.00000   -0.08929
2291.50000   -0.08901
2292.00000   -0.08762
2292.50000   -0.08517
2293.00000   -0.08172
2293.50000   -0.07735
2294.00000   -0.07218
2294.50000   -0.06634
2295.00000   -0.05999
2295.50000   -0.05329
2296.00000   -0.04641
2296.50000   -0.03955
2297.00000   -0.03287
2297.50000   -0.02656
2298.00000   -0.02078
2298.50000   -0.01568
2299.00000   -0.01139
2299.50000   -0.00801
2300.00000   -0.00564
2300.50000   -0.00432
2301.00000   -0.00409
2301.50000   -0.00494
2302.00000   -0.00685
2302.50000   -0.00977
2303.00000   -0.01362
2303.50000   -0.01830
2304.00000   -0.02370
2304.50000   -0.02968
2305.00000   -0.03611
2305.50000   -0.04281
2306.00000   -0.04964
2306.50000   -0.05643
2307.00000   -0.06302
2307.50000   -0.06927
2308.00000   -0.07502
2308.50000   -0.08015
2309.00000   -0.08455
2309.50000   -0.08812
2310.00000   -0.09079
2310.50000   -0.09250
2311.00000   -0.09325
2311.50000   -0.09302
2312.00000   -0.09183
2312.50000   -0.08974
2313.00000   -0.08681
2313.50000   -0.08312
2314.00000   -0.07878
2314.50000   -0.07390
2315.00000   -0.06859
2315.50000   -0.06298
2316.00000   -0.05720
2316.50000   -0.05135
2317.00000   -0.04553
2317.50000   -0.03985
2318.00000   -0.03436
2318.50000   -0.02912
2319.00000   -0.02416
2319.50000   -0.01949
2320.00000   -0.01509
2320.50000   -0.01092
2321.00000   -0.00694
2321.50000   -0.00308
2322.00000    0.00073
2322.50000    0.00457
2323.00000    0.00851
2323.50000    0.01262
2324.00000    0.01693
2324.50000    0.02147
2325.00000    0.02625
2325.50000    0.03123
2326.00000    0.03636
2326.50000    0.04155
2327.00000    0.04669
2327.50000    0.05164
2328.00000    0.05625
2328.50000    0.06038
2329.00000    0.06385
2329.50000    0.06651
2330.00000    0.06825
2330.50000    0.06895
2331.00000    0.06854
2331.50000    0.06701
2332.00000    0.06435
2332.50000    0.06063
2333.00000    0.05596
2333.50000    0.05048
2334.00000    0.04437
2334.50000    0.03783
2335.00000    0.03110
2335.50000    0.02440
2336.00000    0.01797
2336.50000    0.01201
2337.00000    0.00671
2337.50000    0.00224
2338.00000   -0.00130
2338.50000   -0.00381
2339.00000   -0.00527
2339.50000   -0.00568
2340.00000   -0.00509
2340.50000   -0.00357
2341.00000   -0.00123
2341.50000    0.00182
2342.00000    0.00543
2342.50000    0.00950
2343.00000    0.01388
2343.50000    0.01847
2344.00000    0.02317
2344.50000    0.02793
2345.00000    0.03267
2345.50000    0.03737
2346.00000    0.04202
2346.50000    0.04661
2347.00000    0.05114
2347.50000    0.05562
2348.00000    0.06004
2348.50000    0.06440
2349.00000    0.06868
2349.50000    0.07281
2350.00000    0.07675
2350.50000    0.08041
2351.00000    0.08369
2351.50000    0.08646
2352.00000    0.08859
2352.50000    0.08996
2353.00000    0.09044
2353.50000    0.08988
2354.00000    0.08820
2354.50000    0.08528
2355.00000    0.08108
2355.50000    0.07556
2356.00000    0.06872
2356.50000    0.06060
2357.00000    0.05126
2357.50000    0.04082
2358.00000    0.02941
2358.50000    0.01720
2359.00000    0.00437
2359.50000   -0.00887
2360.00000   -0.02230
2360.50000   -0.03570
2361.00000   -0.04886
2361.50000   -0.06156
2362.00000   -0.07360
2362.50000   -0.08480
2363.00000   -0.09500
2363.50000   -0.10405
2364.00000   -0.11183
2364.50000   -0.11827
2365.00000   -0.12328
2365.50000   -0.12681
2366.00000   -0.12886
2366.50000   -0.12941
2367.00000   -0.12847
2367.50000   -0.12607
2368.00000   -0.12227
2368.50000   -0.11711
2369.00000   -0.11067
2369.50000   -0.10302
2370.00000   -0.09426
2370.50000   -0.08449
2371.00000   -0.07384
2371.50000   -0.06243
2372.00000   -0.05041
2372.50000   -0.03793
2373.00000   -0.02518
2373.50000   -0.01233
2374.00000    0.00042
2374.50000    0.01286
2375.00000    0.02478
2375.50000    0.03597
2376.00000    0.04622
2376.50000    0.05535
2377.00000    0.06315
2377.50000    0.06948
2378.00000    0.07420
2378.50000    0.07720
2379.00000    0.07841
2379.50000    0.07781
2380.00000    0.07541
2380.50000    0.07125
2381.00000    0.06543
2381.50000    0.05809
2382.00000    0.04938
2382.50000    0.03952
2383.00000    0.02873
2383.50000    0.01727
2384.00000    0.00539
2384.50000   -0.00662
2385.00000   -0.01849
2385.50000   -0.02993
2386.00000   -0.04069
2386.50000   -0.05050
2387.00000   -0.05916
2387.50000   -0.06645
2388.00000   -0.07220
2388.50000   -0.07630
2389.00000   -0.07865
2389.50000   -0.07919
2390.00000   -0.07794
2390.50000   -0.07492
2391.00000   -0.07024
2391.50000   -0.06401
2392.00000   -0.05642
2392.50000   -0.04765
2393.00000   -0.03794
2393.50000   -0.02755
2394.00000   -0.01675
2394.50000   -0.00580
2395.00000    0.00503
2395.50000    0.01548
2396.00000    0.02532
2396.50000    0.03434
2397.00000    0.04239
2397.50000    0.04934
2398.00000    0.05511
2398.50000    0.05966
2399.00000    0.06301
2399.50000    0.06521
2400.00000    0.06634
2400.50000    0.06653
2401.00000    0.06593
2401.50000    0.06468
2402.00000    0.06296
2402.50000    0.06092
2403.00000    0.05872
2403.50000    0.05649
2404.00000    0.05435
2404.50000    0.05239
2405.00000    0.05066
2405.50000    0.04922
2406.00000    0.04807
2406.50000    0.04719
2407.00000    0.04658
2407.50000    0.04618
2408.00000    0.04596
2408.50000    0.04586
2409.00000    0.04584
2409.50000    0.04585
2410.00000    0.04586
2410.50000    0.04585
2411.00000    0.04579
2411.50000    0.04568
2412.00000    0.04551
2412.50000    0.04528
2413.00000    0.04499
2413.50000    0.04463
2414.00000    0.04418
2414.50000    0.04363
2415.00000    0.04295
2415.50000    0.04209
2416.00000    0.04099
2416.50000    0.03959
2417.00000    0.03782
2417.50000    0.03559
2418.00000    0.03282
2418.50000    0.02944
2419.00000    0.02537
2419.50000    0.02056
2420.00000    0.01497
2420.50000    0.00858
2421.00000    0.00139
2421.50000   -0.00657
2422.00000   -0.01525
2422.50000   -0.02456
2423.00000   -0.03440
2423.50000   -0.04465
2424.00000   -0.05514
2424.50000   -0.06573
2425.00000   -0.07623
2425.50000   -0.08648
2426.00000   -0.09628
2426.50000   -0.10549
2427.00000   -0.11392
2427.50000   -0.12146
2428.00000   -0.12798
2428.50000   -0.13338
2429.00000   -0.13762
2429.50000   -0.14065
2430.00000   -0.14248
2430.50000   -0.14314
2431.00000   -0.14267
2431.50000   -0.14116
2432.00000   -0.13872
2432.50000   -0.13545
2433.00000   -0.13148
2433.50000   -0.12695
2434.00000   -0.12197
2434.50000   -0.11667
2435.00000   -0.11116
2435.50000   -0.10553
2436.00000   -0.09985
2436.50000   -0.09419
2437.00000   -0.08858
2437.50000   -0.08304
2438.00000   -0.07757
2438.50000   -0.07215
2439.00000   -0.06677
2439.50000   -0.06139
2440.00000   -0.05599
2440.50000   -0.05053
2441.00000   -0.04498
2441.50000   -0.03934
2442.00000   -0.03358
2442.50000   -0.02773
2443.00000   -0.02178
2443.50000   -0.01577
2444.00000   -0.00974
2444.50000   -0.00372
2445.00000    0.00224
2445.50000    0.00808
2446.00000    0.01376
2446.50000    0.01921
2447.00000    0.02440
2447.50000    0.02927
2448.00000    0.03378
2448.50000    0.03791
2449.00000    0.04162
2449.50000    0.04488
2450.00000    0.04768
2450.50000    0.04999
2451.00000    0.05183
2451.50000    0.05317
2452.00000    0.05402
2452.50000    0.05440
2453.00000    0.05433
2453.50000    0.05384
2454.00000    0.05298
2454.50000    0.05180
2455.00000    0.05038
2455.50000    0.04880
2456.00000    0.04716
2456.50000    0.04557
2457.00000    0.04413
2457.50000    0.04296
2458.00000    0.04216
2458.50000    0.04183
2459.00000    0.04207
2459.50000    0.04292
2460.00000    0.04443
2460.50000    0.04662
2461.00000    0.04945
2461.50000    0.05288
2462.00000    0.05683
2462.50000    0.06118
2463.00000    0.06581
2463.50000    0.07057
2464.00000    0.07530
2464.50000    0.07983
2465.00000    0.08400
2465.50000    0.08767
2466.00000    0.09071
2466.50000    0.09302
2467.00000    0.09451
2467.50000    0.09513
2468.00000    0.09487
2468.50000    0.09373
2469.00000    0.09175
2469.50000    0.08899
2470.00000    0.08551
2470.50000    0.08140
2471.00000    0.07676
2471.50000    0.07168
2472.00000    0.06624
2472.50000    0.06053
2473.00000    0.05464
2473.50000    0.04862
2474.00000    0.04253
2474.50000    0.03643
2475.00000    0.03036
2475.50000    0.02436
2476.00000    0.01848
2476.50000    0.01274
2477.00000    0.00719
2477.50000    0.00189
2478.00000   -0.00312
2478.50000   -0.00777
2479.00000   -0.01201
2479.50000   -0.01578
2480.00000   -0.01901
2480.50000   -0.02164
2481.00000   -0.02363
2481.50000   -0.02493
2482.00000   -0.02552
2482.50000   -0.02538
2483.00000   -0.02452
2483.50000   -0.02295
2484.00000   -0.02071
2484.50000   -0.01786
2485.00000   -0.01447
2485.50000   -0.01061
2486.00000   -0.00637
2486.50000   -0.00186
2487.00000    0.00284
2487.50000    0.00761
2488.00000    0.01237
2488.50000    0.01703
2489.00000    0.02149
2489.50000    0.02570
2490.00000    0.02957
2490.50000    0.03307
2491.00000    0.03614
2491.50000    0.03876
2492.00000    0.04090
2492.50000    0.04254
2493.00000    0.04369
2493.50000    0.04433
2494.00000    0.04447
2494.50000    0.04412
2495.00000    0.04329
2495.50000    0.04199
2496.00000    0.04023
2496.50000    0.03803
2497.00000    0.03541
2497.50000    0.03240
2498.00000    0.02901
2498.50000    0.02528
2499.00000    0.02124
2499.50000    0.01694
2500.00000    0.01241
2500.50000    0.00771
2501.00000    0.00290
2501.50000   -0.00197
2502.00000   -0.00683
2502.50000   -0.01161
2503.00000   -0.01627
2503.50000   -0.02073
2504.00000   -0.02495
2504.50000   -0.02889
2505.00000   -0.03251
2505.50000   -0.03580
2506.00000   -0.03876
2506.50000   -0.04140
2507.00000   -0.04374
2507.50000   -0.04584
2508.00000   -0.04773
2508.50000   -0.04949
2509.00000   -0.05119
2509.50000   -0.05288
2510.00000   -0.05464
2510.50000   -0.05653
2511.00000   -0.05859
2511.50000   -0.06087
2512.00000   -0.06337
2512.50000   -0.06610
2513.00000   -0.06903
2513.50000   -0.07214
2514.00000   -0.07536
2514.50000   -0.07862
2515.00000   -0.08184
2515.50000   -0.08493
2516.00000   -0.08779
2516.50000   -0.09033
2517.00000   -0.09246
2517.50000   -0.09409
2518.00000   -0.09514
2518.50000   -0.09557
2519.00000   -0.09531
2519.50000   -0.09435
2520.00000   -0.09267
2520.50000   -0.09027
2521.00000   -0.08716
2521.50000   -0.08339
2522.00000   -0.07899
2522.50000   -0.07404
2523.00000   -0.06859
2523.50000   -0.06272
2524.00000   -0.05652
2524.50000   -0.05008
2525.00000   -0.04350
2525.50000   -0.03686
2526.00000   -0.03028
2526.50000   -0.02384
2527.00000   -0.01763
2527.50000   -0.01173
2528.00000   -0.00622
2528.50000   -0.00115
2529.00000    0.00344
2529.50000    0.00750
2530.00000    0.01105
2530.50000    0.01409
2531.00000    0.01666
2531.50000    0.01880
2532.00000    0.02058
2532.50000    0.02209
2533.00000    0.02343
2533.50000    0.02470
2534.00000    0.02599
2534.50000    0.02743
2535.00000    0.02910
2535.50000    0.03109
2536.00000    0.03346
2536.50000    0.03627
2537.00000    0.03954
2537.50000    0.04328
2538.00000    0.04746
2538.50000    0.05203
2539.00000    0.05693
2539.50000    0.06207
2540.00000    0.06735
2540.50000    0.07265
2541.00000    0.07784
2541.50000    0.08280
2542.00000    0.08741
2542.50000    0.09155
2543.00000    0.09511
2543.50000    0.09801
2544.00000    0.10015
2544.50000    0.10150
2545.00000    0.10201
2545.50000    0.10167
2546.00000    0.10048
2546.50000    0.09848
2547.00000    0.09570
2547.50000    0.09221
2548.00000    0.08808
2548.50000    0.08340
2549.00000    0.07827
2549.50000    0.07277
2550.00000    0.06702
2550.50000    0.06111
2551.00000    0.05516
2551.50000    0.04925
2552.00000    0.04349
2552.50000    0.03795
2553.00000    0.03271
2553.50000    0.02785
2554.00000    0.02343
2554.50000    0.01949
2555.00000    0.01608
2555.50000    0.01324
2556.00000    0.01098
2556.50000    0.00932
2557.00000    0.00824
2557.50000    0.00773
2558.00000    0.00776
2558.50000    0.00827
2559.00000    0.00920
2559.50000    0.01046
2560.00000    0.01194
2560.50000    0.01353
2561.00000    0.01509
2561.50000    0.01648
2562.00000    0.01755
2562.50000    0.01813
2563.00000    0.01807
2563.50000    0.01723
2564.00000    0.01547
2564.50000    0.01269
2565.00000    0.00880
2565.50000    0.00375
2566.00000   -0.00247
2566.50000   -0.00984
2567.00000   -0.01828
2567.50000   -0.02770
2568.00000   -0.03793
2568.50000   -0.04881
2569.00000   -0.06011
2569.50000   -0.07159
2570.00000   -0.08302
2570.50000   -0.09412
2571.00000   -0.10464
2571.50000   -0.11435
2572.00000   -0.12301
2572.50000   -0.13042
2573.00000   -0.13643
2573.50000   -0.14091
2574.00000   -0.14377
2574.50000   -0.14499
2575.00000   -0.14456
2575.50000   -0.14253
2576.00000   -0.13898
2576.50000   -0.13403
2577.00000   -0.12782
2577.50000   -0.12051
2578.00000   -0.11226
2578.50000   -0.10326
2579.00000   -0.09367
2579.50000   -0.08367
2580.00000   -0.07340
2580.50000   -0.06299
2581.00000   -0.05256
2581.50000   -0.04220
2582.00000   -0.03198
2582.50000   -0.02194
2583.00000   -0.01212
2583.50000   -0.00256
2584.00000    0.00675
2584.50000    0.01577
2585.00000    0.02450
2585.50000    0.03290
2586.00000    0.04094
2586.50000    0.04855
2587.00000    0.05567
2587.50000    0.06220
2588.00000    0.06805
2588.50000    0.07310
2589.00000    0.07722
2589.50000    0.08030
2590.00000    0.08222
2590.50000    0.08288
2591.00000    0.08219
2591.50000    0.08011
2592.00000    0.07662
2592.50000    0.07174
2593.00000    0.06551
2593.50000    0.05805
2594.00000    0.04948
2594.50000    0.03998
2595.00000    0.02975
2595.50000    0.01900
2596.00000    0.00796
2596.50000   -0.00313
2597.00000   -0.01404
2597.50000   -0.02457
2598.00000   -0.03453
2598.50000   -0.04376
2599.00000   -0.05214
2599.50000   -0.05958
2600.00000   -0.06605
2600.50000   -0.07151
2601.00000   -0.07600
2601.50000   -0.07956
2602.00000   -0.08224
2602.50000   -0.08413
2603.00000   -0.08528
2603.50000   -0.08578
2604.00000   -0.08568
2604.50000   -0.08503
2605.00000   -0.08385
2605.50000   -0.08215
2606.00000   -0.07991
2606.50000   -0.07710
2607.00000   -0.07367
2607.50000   -0.06958
2608.00000   -0.06477
2608.50000   -0.05921
2609.00000   -0.05287
2609.50000   -0.04573
2610.00000   -0.03782
2610.50000   -0.02920
2611.00000   -0.01993
2611.50000   -0.01016
2612.00000   -0.00002
2612.50000    0.01030
2613.00000    0.02060
2613.50000    0.03066
2614.00000    0.04024
2614.50000    0.04913
2615.00000    0.05709
2615.50000    0.06395
2616.00000    0.06952
2616.50000    0.07368
2617.00000    0.07635
2617.50000    0.07749
2618.00000    0.07711
2618.50000    0.07529
2619.00000    0.07215
2619.50000    0.06787
2620.00000    0.06265
2620.50000    0.05674
2621.00000    0.05044
2621.50000    0.04405
2622.00000    0.03787
2622.50000    0.03222
2623.00000    0.02741
2623.50000    0.02372
2624.00000    0.02141
2624.50000    0.02070
2625.00000    0.02178
2625.50000    0.02480
2626.00000    0.02982
2626.50000    0.03691
2627.00000    0.04605
2627.50000    0.05718
2628.00000    0.07020
2628.50000    0.08495
2629.00000    0.10126
2629.50000    0.11891
2630.00000    0.13766
2630.50000    0.15725
2631.00000    0.17744
2631.50000    0.19795
2632.00000    0.21855
2632.50000    0.23900
2633.00000    0.25910
2633.50000    0.27869
2634.00000    0.29764
2634.50000    0.31588
2635.00000    0.33335
2635.50000    0.35009
2636.00000    0.36616
2636.50000    0.38167
2637.00000    0.39676
2637.50000    0.41165
2638.00000    0.42653
2638.50000    0.44166
2639.00000    0.45729
2639.50000    0.47368
2640.00000    0.49109
2640.50000    0.50976
2641.00000    0.52992
2641.50000    0.55179
2642.00000    0.57555
2642.50000    0.60135
2643.00000    0.62934
2643.50000    0.65963
2644.00000    0.69232
2644.50000    0.72749
2645.00000    0.76522
2645.50000    0.80560
2646.00000    0.84870
2646.50000    0.89460
2647.00000    0.94342
2647.50000    0.99527
2648.00000    1.05026
2648.50000    1.10855
2649.00000    1.17029
2649.50000    1.23565
2650.00000    1.30478
2650.50000    1.37787
2651.00000    1.45509
2651.50000    1.53660
2652.00000    1.62255
2652.50000    1.71310
2653.00000    1.80838
2653.50000    1.90851
2654.00000    2.01358
2654.50000    2.12369
2655.00000    2.23890
2655.50000    2.35927
2656.00000    2.48484
2656.50000    2.61563
2657.00000    2.75165
2657.50000    2.89291
2658.00000    3.03937
2658.50000    3.19103
2659.00000    3.34781
2659.50000    3.50967
2660.00000    3.67651
2660.50000    3.84825
2661.00000    4.02477
2661.50000    4.20592
2662.00000    4.39155
2662.50000    4.58148
2663.00000    4.77549
2663.50000    4.97334
2664.00000    5.17478
2664.50000    5.37950
2665.00000    5.58716
2665.50000    5.79740
2666.00000    6.00979
2666.50000    6.22387
2667.00000    6.43912
2667.50000    6.65498
2668.00000    6.87083
2668.50000    7.08599
2669.00000    7.29973
2669.50000    7.51129
2670.00000    7.71982
2670.50000    7.92449
2671.00000    8.12439
2671.50000    8.31861
2672.00000    8.50624
2672.50000    8.68633
2673.00000    8.85800
2673.50000    9.02036
2674.00000    9.17256
2674.50000    9.31380
2675.00000    9.44335
2675.50000    9.56054
2676.00000    9.66477
2676.50000    9.75553
2677.00000    9.83240
2677.50000    9.89505
2678.00000    9.94323
2678.50000    9.97680
2679.00000    9.99571
2679.50000   10.00000
2680.00000    9.98979
2680.50000    9.96530
2681.00000    9.92682
2681.50000    9.87473
2682.00000    9.80947
2682.50000    9.73155
2683.00000    9.64152
2683.50000    9.53998
2684.00000    9.42759
2684.50000    9.30500
2685.00000    9.17290
2685.50000    9.03198
2686.00000    8.88291
2686.50000    8.72639
2687.00000    8.56307
2687.50000    8.39358
2688.00000    8.21855
2688.50000    8.03858
2689.00000    7.85424
2689.50000    7.66609
2690.00000    7.47467
2690.50000    7.28053
2691.00000    7.08418
2691.50000    6.88617
2692.00000    6.68703
2692.50000    6.48729
2693.00000    6.28751
2693.50000    6.08822
2694.00000    5.88997
2694.50000    5.69331
2695.00000    5.49874
2695.50000    5.30679
2696.00000    5.11792
2696.50000    4.93257
2697.00000    4.75111
2697.50000    4.57389
2698.00000    4.40118
2698.50000    4.23319
2699.00000    4.07007
2699.50000    3.91193
2700.00000    3.75880
2700.50000    3.61067
2701.00000    3.46749
2701.50000    3.32918
2702.00000    3.19564
2702.50000    3.06675
2703.00000    2.94238
2703.50000    2.82242
2704.00000    2.70673
2704.50000    2.59523
2705.00000    2.48781
2705.50000    2.38438
2706.00000    2.28488
2706.50000    2.18923
2707.00000    2.09737
2707.50000    2.00922
2708.00000    1.92472
2708.50000    1.84378
2709.00000    1.76629
2709.50000    1.69214
2710.00000    1.62119
2710.50000    1.55328
2711.00000    1.48824
2711.50000    1.42590
2712.00000    1.36605
2712.50000    1.30851
2713.00000    1.25308
2713.50000    1.19958
2714.00000    1.14785
2714.50000    1.09774
2715.00000    1.04913
2715.50000    1.00193
2716.00000    0.95606
2716.50000    0.91150
2717.00000    0.86824
2717.50000    0.82630
2718.00000    0.78571
2718.50000    0.74655
2719.00000    0.70885
2719.50000    0.67270
2720.00000    0.63816
2720.50000    0.60528
2721.00000    0.57409
2721.50000    0.54463
2722.00000    0.51688
2722.50000    0.49084
2723.00000    0.46647
2723.50000    0.44371
2724.00000    0.42250
2724.50000    0.40275
2725.00000    0.38440
2725.50000    0.36736
2726.00000    0.35156
2726.50000    0.33694
2727.00000    0.32345
2727.50000    0.31103
2728.00000    0.29966
2728.50000    0.28930
2729.00000    0.27991
2729.50000    0.27146
2730.00000    0.26390
2730.50000    0.25716
2731.00000    0.25115
2731.50000    0.24575
2732.00000    0.24082
2732.50000    0.23619
2733.00000    0.23165
2733.50000    0.22700
2734.00000    0.22199
2734.50000    0.21640
2735.00000    0.21000
2735.50000    0.20260
2736.00000    0.19401
2736.50000    0.18411
2737.00000    0.17282
2737.50000    0.16011
2738.00000    0.14601
2738.50000    0.13063
2739.00000    0.11411
2739.50000    0.09666
2740.00000    0.07855
2740.50000    0.06004
2741.00000    0.04146
2741.50000    0.02312
2742.00000    0.00535
2742.50000   -0.01155
2743.00000   -0.02729
2743.50000   -0.04162
2744.00000   -0.05433
2744.50000   -0.06523
2745.00000   -0.07422
2745.50000   -0.08121
2746.00000   -0.08616
2746.50000   -0.08910
2747.00000   -0.09007
2747.50000   -0.08916
2748.00000   -0.08648
2748.50000   -0.08218
2749.00000   -0.07641
2749.50000   -0.06938
2750.00000   -0.06125
2750.50000   -0.05225
2751.00000   -0.04258
2751.50000   -0.03245
2752.00000   -0.02208
2752.50000   -0.01169
2753.00000   -0.00148
2753.50000    0.00836
2754.00000    0.01762
2754.50000    0.02614
2755.00000    0.03377
2755.50000    0.04036
2756.00000    0.04582
2756.50000    0.05007
2757.00000    0.05306
2757.50000    0.05478
2758.00000    0.05523
2758.50000    0.05447
2759.00000    0.05256
2759.50000    0.04961
2760.00000    0.04572
2760.50000    0.04101
2761.00000    0.03564
2761.50000    0.02972
2762.00000    0.02339
2762.50000    0.01678
2763.00000    0.00997
2763.50000    0.00306
2764.00000   -0.00388
2764.50000   -0.01082
2765.00000   -0.01772
2765.50000   -0.02458
2766.00000   -0.03140
2766.50000   -0.03818
2767.00000   -0.04494
2767.50000   -0.05169
2768.00000   -0.05842
2768.50000   -0.06511
2769.00000   -0.07171
2769.50000   -0.07816
2770.00000   -0.08437
2770.50000   -0.09020
2771.00000   -0.09553
2771.50000   -0.10019
2772.00000   -0.10401
2772.50000   -0.10681
2773.00000   -0.10841
2773.50000   -0.10866
2774.00000   -0.10742
2774.50000   -0.10458
2775.00000   -0.10008
2775.50000   -0.09388
2776.00000   -0.08603
2776.50000   -0.07660
2777.00000   -0.06573
2777.50000   -0.05361
2778.00000   -0.04046
2778.50000   -0.02656
2779.00000   -0.01220
2779.50000    0.00228
2780.00000    0.01656
2780.50000    0.03032
2781.00000    0.04324
2781.50000    0.05503
2782.00000    0.06545
2782.50000    0.07428
2783.00000    0.08138
2783.50000    0.08663
2784.00000    0.09000
2784.50000    0.09149
2785.00000    0.09118
2785.50000    0.08919
2786.00000    0.08568
2786.50000    0.08085
2787.00000    0.07495
2787.50000    0.06824
2788.00000    0.06097
2788.50000    0.05341
2789.00000    0.04584
2789.50000    0.03849
2790.00000    0.03158
2790.50000    0.02531
2791.00000    0.01981
2791.50000    0.01520
2792.00000    0.01153
2792.50000    0.00884
2793.00000    0.00708
2793.50000    0.00620
2794.00000    0.00610
2794.50000    0.00664
2795.00000    0.00768
2795.50000    0.00905
2796.00000    0.01058
2796.50000    0.01211
2797.00000    0.01348
2797.50000    0.01457
2798.00000    0.01528
2798.50000    0.01553
2799.00000    0.01529
2799.50000    0.01459
2800.00000    0.01345
2800.50000    0.01199
2801.00000    0.01030
2801.50000    0.00856
2802.00000    0.00692
2802.50000    0.00558
2803.00000    0.00472
2803.50000    0.00452
2804.00000    0.00515
2804.50000    0.00674
2805.00000    0.00940
2805.50000    0.01319
2806.00000    0.01814
2806.50000    0.02420
2807.00000    0.03130
2807.50000    0.03931
2808.00000    0.04806
2808.50000    0.05735
2809.00000    0.06694
2809.50000    0.07658
2810.00000    0.08601
2810.50000    0.09497
2811.00000    0.10323
2811.50000    0.11056
2812.00000    0.11678
2812.50000    0.12173
2813.00000    0.12533
2813.50000    0.12751
2814.00000    0.12825
2814.50000    0.12759
2815.00000    0.12560
2815.50000    0.12238
2816.00000    0.11805
2816.50000    0.11275
2817.00000    0.10662
2817.50000    0.09980
2818.00000    0.09243
2818.50000    0.08462
2819.00000    0.07646
2819.50000    0.06802
2820.00000    0.05935
2820.50000    0.05048
2821.00000    0.04141
2821.50000    0.03213
2822.00000    0.02264
2822.50000    0.01291
2823.00000    0.00294
2823.50000   -0.00727
2824.00000   -0.01770
2824.50000   -0.02831
2825.00000   -0.03904
2825.50000   -0.04981
2826.00000   -0.06050
2826.50000   -0.07101
2827.00000   -0.08118
2827.50000   -0.09088
2828.00000   -0.09996
2828.50000   -0.10826
2829.00000   -0.11567
2829.50000   -0.12206
2830.00000   -0.12734
2830.50000   -0.13142
2831.00000   -0.13428
2831.50000   -0.13589
2832.00000   -0.13627
2832.50000   -0.13547
2833.00000   -0.13354
2833.50000   -0.13058
2834.00000   -0.12671
2834.50000   -0.12206
2835.00000   -0.11677
2835.50000   -0.11098
2836.00000   -0.10484
2836.50000   -0.09850
2837.00000   -0.09210
2837.50000   -0.08576
2838.00000   -0.07961
2838.50000   -0.07373
2839.00000   -0.06820
2839.50000   -0.06309
2840.00000   -0.05842
2840.50000   -0.05421
2841.00000   -0.05045
2841.50000   -0.04710
2842.00000   -0.04412
2842.50000   -0.04144
2843.00000   -0.03896
2843.50000   -0.03659
2844.00000   -0.03421
2844.50000   -0.03169
2845.00000   -0.02891
2845.50000   -0.02573
2846.00000   -0.02201
2846.50000   -0.01764
2847.00000   -0.01249
2847.50000   -0.00646
2848.00000    0.00056
2848.50000    0.00862
2849.00000    0.01778
2849.50000    0.02805
2850.00000    0.03943
2850.50000    0.05189
2851.00000    0.06535
2851.50000    0.07971
2852.00000    0.09486
2852.50000    0.11064
2853.00000    0.12690
2853.50000    0.14343
2854.00000    0.16008
2854.50000    0.17663
2855.00000    0.19292
2855.50000    0.20877
2856.00000    0.22405
2856.50000    0.23862
2857.00000    0.25239
2857.50000    0.26530
2858.00000    0.27731
2858.50000    0.28842
2859.00000    0.29865
2859.50000    0.30805
2860.00000    0.31666
2860.50000    0.32458
2861.00000    0.33187
2861.50000    0.33860
2862.00000    0.34486
2862.50000    0.35069
2863.00000    0.35614
2863.50000    0.36126
2864.00000    0.36604
2864.50000    0.37050
2865.00000    0.37462
2865.50000    0.37840
2866.00000    0.38179
2866.50000    0.38478
2867.00000    0.38735
2867.50000    0.38945
2868.00000    0.39108
2868.50000    0.39222
2869.00000    0.39285
2869.50000    0.39296
2870.00000    0.39253
2870.50000    0.39155
2871.00000    0.39001
2871.50000    0.38787
2872.00000    0.38511
2872.50000    0.38169
2873.00000    0.37756
2873.50000    0.37270
2874.00000    0.36704
2874.50000    0.36055
2875.00000    0.35320
2875.50000    0.34497
2876.00000    0.33586
2876.50000    0.32587
2877.00000    0.31505
2877.50000    0.30343
2878.00000    0.29111
2878.50000    0.27817
2879.00000    0.26471
2879.50000    0.25085
2880.00000    0.23670
2880.50000    0.22238
2881.00000    0.20800
2881.50000    0.19366
2882.00000    0.17943
2882.50000    0.16538
2883.00000    0.15156
2883.50000    0.13801
2884.00000    0.12473
2884.50000    0.11174
2885.00000    0.09903
2885.50000    0.08662
2886.00000    0.07450
2886.50000    0.06268
2887.00000    0.05119
2887.50000    0.04008
2888.00000    0.02939
2888.50000    0.01920
2889.00000    0.00957
2889.50000    0.00061
2890.00000   -0.00759
2890.50000   -0.01495
2891.00000   -0.02137
2891.50000   -0.02678
2892.00000   -0.03112
2892.50000   -0.03436
2893.00000   -0.03647
2893.50000   -0.03747
2894.00000   -0.03738
2894.50000   -0.03627
2895.00000   -0.03421
2895.50000   -0.03129
2896.00000   -0.02762
2896.50000   -0.02333
2897.00000   -0.01852
2897.50000   -0.01333
2898.00000   -0.00785
2898.50000   -0.00220
2899.00000    0.00355
2899.50000    0.00932
