1200.50000   -0.00274
1201.00000   -0.00241
1201.50000   -0.00206
1202.00000   -0.00169
1202.50000   -0.00130
1203.00000   -0.00088
1203.50000   -0.00042
1204.00000    0.00007
1204.50000    0.00059
1205.00000    0.00113
1205.50000    0.00169
1206.00000    0.00225
1206.50000    0.00281
1207.00000    0.00337
1207.50000    0.00392
1208.00000    0.00446
1208.50000    0.00500
1209.00000    0.00553
1209.50000    0.00608
1210.00000    0.00664
1210.50000    0.00723
1211.00000    0.00787
1211.50000    0.00856
1212.00000    0.00932
1212.50000    0.01016
1213.00000    0.01108
1213.50000    0.01208
1214.00000    0.01318
1214.50000    0.01437
1215.00000    0.01566
1215.50000    0.01702
1216.00000    0.01847
1216.50000    0.02000
1217.00000    0.02160
1217.50000    0.02326
1218.00000    0.02499
1218.50000    0.02677
1219.00000    0.02861
1219.50000    0.03051
1220.00000    0.03245
1220.50000    0.03444
1221.00000    0.03647
1221.50000    0.03854
1222.00000    0.04064
1222.50000    0.04276
1223.00000    0.04488
1223.50000    0.04699
1224.00000    0.04907
1224.50000    0.05109
1225.00000    0.05303
1225.50000    0.05484
1226.00000    0.05650
1226.50000    0.05797
1227.00000    0.05920
1227.50000    0.06015
1228.00000    0.06077
1228.50000    0.06101
1229.00000    0.06083
1229.50000    0.06017
1230.00000    0.05897
1230.50000    0.05720
1231.00000    0.05479
1231.50000    0.05169
1232.00000    0.04788
1232.50000    0.04330
1233.00000    0.03794
1233.50000    0.03176
1234.00000    0.02478
1234.50000    0.01698
1235.00000    0.00841
1235.50000   -0.00090
1236.00000   -0.01087
1236.50000   -0.02144
1237.00000   -0.03248
1237.50000   -0.04387
1238.00000   -0.05548
1238.50000   -0.06716
1239.00000   -0.07872
1239.50000   -0.09002
1240.00000   -0.10087
1240.50000   -0.11112
1241.00000   -0.12060
1241.50000   -0.12919
1242.00000   -0.13676
1242.50000   -0.14321
1243.00000   -0.14849
1243.50000   -0.15256
1244.00000   -0.15541
1244.50000   -0.15706
1245.00000   -0.15758
1245.50000   -0.15704
1246.00000   -0.15553
1246.50000   -0.15317
1247.00000   -0.15006
1247.50000   -0.14633
1248.00000   -0.14210
1248.50000   -0.13745
1249.00000   -0.13249
1249.50000   -0.12728
1250.00000   -0.12188
1250.50000   -0.11630
1251.00000   -0.11056
1251.50000   -0.10463
1252.00000   -0.09849
1252.50000   -0.09209
1253.00000   -0.08538
1253.50000   -0.07830
1254.00000   -0.07079
1254.50000   -0.06282
1255.00000   -0.05435
1255.50000   -0.04538
1256.00000   -0.03589
1256.50000   -0.02594
1257.00000   -0.01556
1257.50000   -0.00483
1258.00000    0.00616
1258.50000    0.01730
1259.00000    0.02847
1259.50000    0.03953
1260.00000    0.05037
1260.50000    0.06084
1261.00000    0.07082
1261.50000    0.08020
1262.00000    0.08888
1262.50000    0.09677
1263.00000    0.10380
1263.50000    0.10992
1264.00000    0.11511
1264.50000    0.11934
1265.00000    0.12260
1265.50000    0.12490
1266.00000    0.12625
1266.50000    0.12667
1267.00000    0.12618
1267.50000    0.12481
1268.00000    0.12256
1268.50000    0.11946
1269.00000    0.11553
1269.50000    0.11077
1270.00000    0.10519
1270.50000    0.09883
1271.00000    0.09168
1271.50000    0.08379
1272.00000    0.07518
1272.50000    0.06590
1273.00000    0.05602
1273.50000    0.04561
1274.00000    0.03476
1274.50000    0.02361
1275.00000    0.01226
1275.50000    0.00088
1276.00000   -0.01038
1276.50000   -0.02134
1277.00000   -0.03182
1277.50000   -0.04163
1278.00000   -0.05059
1278.50000   -0.05852
1279.00000   -0.06524
1279.50000   -0.07059
1280.00000   -0.07445
1280.50000   -0.07667
1281.00000   -0.07719
1281.50000   -0.07593
1282.00000   -0.07286
1282.50000   -0.06798
1283.00000   -0.06133
1283.50000   -0.05296
1284.00000   -0.04298
1284.50000   -0.03152
1285.00000   -0.01874
1285.50000   -0.00483
1286.00000    0.01001
1286.50000    0.02552
1287.00000    0.04147
1287.50000    0.05759
1288.00000    0.07360
1288.50000    0.08924
1289.00000    0.10422
1289.50000    0.11829
1290.00000    0.13118
1290.50000    0.14266
1291.00000    0.15251
1291.50000    0.16054
1292.00000    0.16657
1292.50000    0.17047
1293.00000    0.17216
1293.50000    0.17155
1294.00000    0.16863
1294.50000    0.16342
1295.00000    0.15595
1295.50000    0.14633
1296.00000    0.13468
1296.50000    0.12114
1297.00000    0.10591
1297.50000    0.08920
1298.00000    0.07123
1298.50000    0.05225
1299.00000    0.03253
1299.50000    0.01233
1300.00000   -0.00807
1300.50000   -0.02841
1301.00000   -0.04841
1301.50000   -0.06782
1302.00000   -0.08640
1302.50000   -0.10391
1303.00000   -0.12014
1303.50000   -0.13490
1304.00000   -0.14803
1304.50000   -0.15938
1305.00000   -0.16883
1305.50000   -0.17629
1306.00000   -0.18169
1306.50000   -0.18500
1307.00000   -0.18618
1307.50000   -0.18526
1308.00000   -0.18225
1308.50000   -0.17721
1309.00000   -0.17021
1309.50000   -0.16131
1310.00000   -0.15064
1310.50000   -0.13829
1311.00000   -0.12440
1311.50000   -0.10909
1312.00000   -0.09249
1312.50000   -0.07477
1313.00000   -0.05605
1313.50000   -0.03649
1314.00000   -0.01623
1314.50000    0.00457
1315.00000    0.02578
1315.50000    0.04725
1316.00000    0.06885
1316.50000    0.09043
1317.00000    0.11187
1317.50000    0.13303
1318.00000    0.15381
1318.50000    0.17408
1319.00000    0.19373
1319.50000    0.21269
1320.00000    0.23085
1320.50000    0.24815
1321.00000    0.26454
1321.50000    0.27999
1322.00000    0.29449
1322.50000    0.30805
1323.00000    0.32072
1323.50000    0.33258
1324.00000    0.34373
1324.50000    0.35431
1325.00000    0.36450
1325.50000    0.37448
1326.00000    0.38450
1326.50000    0.39480
1327.00000    0.40566
1327.50000    0.41736
1328.00000    0.43019
1328.50000    0.44444
1329.00000    0.46038
1329.50000    0.47828
1330.00000    0.49836
1330.50000    0.52081
1331.00000    0.54577
1331.50000    0.57333
1332.00000    0.60350
1332.50000    0.63627
1333.00000    0.67152
1333.50000    0.70908
1334.00000    0.74871
1334.50000    0.79012
1335.00000    0.83295
1335.50000    0.87679
1336.00000    0.92121
1336.50000    0.96573
1337.00000    1.00986
1337.50000    1.05310
1338.00000    1.09496
1338.50000    1.13498
1339.00000    1.17271
1339.50000    1.20776
1340.00000    1.23979
1340.50000    1.26851
1341.00000    1.29370
1341.50000    1.31520
1342.00000    1.33292
1342.50000    1.34685
1343.00000    1.35701
1343.50000    1.36352
1344.00000    1.36651
1344.50000    1.36618
1345.00000    1.36277
1345.50000    1.35652
1346.00000    1.34770
1346.50000    1.33659
1347.00000    1.32347
1347.50000    1.30858
1348.00000    1.29217
1348.50000    1.27445
1349.00000    1.25562
1349.50000    1.23582
1350.00000    1.21517
1350.50000    1.19377
1351.00000    1.17167
1351.50000    1.14891
1352.00000    1.12550
1352.50000    1.10142
1353.00000    1.07666
1353.50000    1.05120
1354.00000    1.02500
1354.50000    0.99805
1355.00000    0.97032
1355.50000    0.94181
1356.00000    0.91253
1356.50000    0.88252
1357.00000    0.85182
1357.50000    0.82048
1358.00000    0.78860
1358.50000    0.75626
1359.00000    0.72357
1359.50000    0.69063
1360.00000    0.65756
1360.50000    0.62448
1361.00000    0.59150
1361.50000    0.55873
1362.00000    0.52627
1362.50000    0.49423
1363.00000    0.46269
1363.50000    0.43172
1364.00000    0.40141
1364.50000    0.37180
1365.00000    0.34295
1365.50000    0.31493
1366.00000    0.28776
1366.50000    0.26151
1367.00000    0.23623
1367.50000    0.21195
1368.00000    0.18875
1368.50000    0.16667
1369.00000    0.14578
1369.50000    0.12614
1370.00000    0.10782
1370.50000    0.09087
1371.00000    0.07536
1371.50000    0.06133
1372.00000    0.04882
1372.50000    0.03786
1373.00000    0.02844
1373.50000    0.02057
1374.00000    0.01420
1374.50000    0.00928
1375.00000    0.00573
1375.50000    0.00344
1376.00000    0.00230
1376.50000    0.00215
1377.00000    0.00284
1377.50000    0.00420
1378.00000    0.00605
1378.50000    0.00821
1379.00000    0.01051
1379.50000    0.01278
1380.00000    0.01484
1380.50000    0.01658
1381.00000    0.01784
1381.50000    0.01855
1382.00000    0.01860
1382.50000    0.01796
1383.00000    0.01658
1383.50000    0.01447
1384.00000    0.01163
1384.50000    0.00811
1385.00000    0.00396
1385.50000   -0.00076
1386.00000   -0.00595
1386.50000   -0.01154
1387.00000   -0.01743
1387.50000   -0.02352
1388.00000   -0.02971
1388.50000   -0.03591
1389.00000   -0.04202
1389.50000   -0.04795
1390.00000   -0.05361
1390.50000   -0.05892
1391.00000   -0.06380
1391.50000   -0.06817
1392.00000   -0.07196
1392.50000   -0.07510
1393.00000   -0.07753
1393.50000   -0.07918
1394.00000   -0.08001
1394.50000   -0.07996
1395.00000   -0.07898
1395.50000   -0.07705
1396.00000   -0.07415
1396.50000   -0.07026
1397.00000   -0.06540
1397.50000   -0.05959
1398.00000   -0.05288
1398.50000   -0.04532
1399.00000   -0.03702
1399.50000   -0.02808
1400.00000   -0.01862
1400.50000   -0.00880
1401.00000    0.00121
1401.50000    0.01124
1402.00000    0.02108
1402.50000    0.03054
1403.00000    0.03941
1403.50000    0.04749
1404.00000    0.05458
1404.50000    0.06051
1405.00000    0.06511
1405.50000    0.06824
1406.00000    0.06979
1406.50000    0.06970
1407.00000    0.06791
1407.50000    0.06442
1408.00000    0.05928
1408.50000    0.05256
1409.00000    0.04437
1409.50000    0.03488
1410.00000    0.02427
1410.50000    0.01278
1411.00000    0.00066
1411.50000   -0.01183
1412.00000   -0.02438
1412.50000   -0.03670
1413.00000   -0.04849
1413.50000   -0.05945
1414.00000   -0.06932
1414.50000   -0.07783
1415.00000   -0.08475
1415.50000   -0.08992
1416.00000   -0.09317
1416.50000   -0.09442
1417.00000   -0.09362
1417.50000   -0.09076
1418.00000   -0.08592
1418.50000   -0.07918
1419.00000   -0.07071
1419.50000   -0.06070
1420.00000   -0.04937
1420.50000   -0.03698
1421.00000   -0.02381
1421.50000   -0.01015
1422.00000    0.00374
1422.50000    0.01755
1423.00000    0.03104
1423.50000    0.04396
1424.00000    0.05612
1424.50000    0.06734
1425.00000    0.07750
1425.50000    0.08650
1426.00000    0.09431
1426.50000    0.10091
1427.00000    0.10633
1427.50000    0.11063
1428.00000    0.11389
1428.50000    0.11622
1429.00000    0.11773
1429.50000    0.11853
1430.00000    0.11874
1430.50000    0.11846
1431.00000    0.11779
1431.50000    0.11679
1432.00000    0.11550
1432.50000    0.11395
1433.00000    0.11214
1433.50000    0.11005
1434.00000    0.10761
1434.50000    0.10478
1435.00000    0.10147
1435.50000    0.09761
1436.00000    0.09310
1436.50000    0.08788
1437.00000    0.08185
1437.50000    0.07497
1438.00000    0.06719
1438.50000    0.05848
1439.00000    0.04885
1439.50000    0.03831
1440.00000    0.02693
1440.50000    0.01476
1441.00000    0.00190
1441.50000   -0.01152
1442.00000   -0.02538
1442.50000   -0.03952
1443.00000   -0.05379
1443.50000   -0.06802
1444.00000   -0.08202
1444.50000   -0.09563
1445.00000   -0.10867
1445.50000   -0.12097
1446.00000   -0.13238
1446.50000   -0.14272
1447.00000   -0.15188
1447.50000   -0.15971
1448.00000   -0.16611
1448.50000   -0.17098
1449.00000   -0.17425
1449.50000   -0.17586
1450.00000   -0.17576
1450.50000   -0.17395
1451.00000   -0.17043
1451.50000   -0.16522
1452.00000   -0.15837
1452.50000   -0.14996
1453.00000   -0.14008
1453.50000   -0.12885
1454.00000   -0.11638
1454.50000   -0.10285
1455.00000   -0.08840
1455.50000   -0.07324
1456.00000   -0.05754
1456.50000   -0.04152
1457.00000   -0.02538
1457.50000   -0.00934
1458.00000    0.00639
1458.50000    0.02161
1459.00000    0.03611
1459.50000    0.04970
1460.00000    0.06221
1460.50000    0.07349
1461.00000    0.08339
1461.50000    0.09180
1462.00000    0.09863
1462.50000    0.10382
1463.00000    0.10734
1463.50000    0.10917
1464.00000    0.10934
1464.50000    0.10789
1465.00000    0.10488
1465.50000    0.10041
1466.00000    0.09458
1466.50000    0.08752
1467.00000    0.07936
1467.50000    0.07027
1468.00000    0.06039
1468.50000    0.04988
1469.00000    0.03893
1469.50000    0.02767
1470.00000    0.01628
1470.50000    0.00491
1471.00000   -0.00631
1471.50000   -0.01723
1472.00000   -0.02774
1472.50000   -0.03773
1473.00000   -0.04711
1473.50000   -0.05579
1474.00000   -0.06370
1474.50000   -0.07079
1475.00000   -0.07702
1475.50000   -0.08236
1476.00000   -0.08679
1476.50000   -0.09030
1477.00000   -0.09289
1477.50000   -0.09459
1478.00000   -0.09541
1478.50000   -0.09538
1479.00000   -0.09454
1479.50000   -0.09292
1480.00000   -0.09058
1480.50000   -0.08756
1481.00000   -0.08391
1481.50000   -0.07967
1482.00000   -0.07491
1482.50000   -0.06966
1483.00000   -0.06396
1483.50000   -0.05785
1484.00000   -0.05137
1484.50000   -0.04453
1485.00000   -0.03737
1485.50000   -0.02989
1486.00000   -0.02211
1486.50000   -0.01404
1487.00000   -0.00569
1487.50000    0.00293
1488.00000    0.01182
1488.50000    0.02094
1489.00000    0.03027
1489.50000    0.03979
1490.00000    0.04943
1490.50000    0.05915
1491.00000    0.06886
1491.50000    0.07849
1492.00000    0.08793
1492.50000    0.09707
1493.00000    0.10579
1493.50000    0.11397
1494.00000    0.12148
1494.50000    0.12818
1495.00000    0.13397
1495.50000    0.13872
1496.00000    0.14233
1496.50000    0.14473
1497.00000    0.14586
1497.50000    0.14567
1498.00000    0.14415
1498.50000    0.14133
1499.00000    0.13725
1499.50000    0.13198
1500.00000    0.12561
1500.50000    0.11828
1501.00000    0.11012
1501.50000    0.10130
1502.00000    0.09199
1502.50000    0.08236
1503.00000    0.07261
1503.50000    0.06290
1504.00000    0.05342
1504.50000    0.04430
1505.00000    0.03570
1505.50000    0.02774
1506.00000    0.02050
1506.50000    0.01405
1507.00000    0.00844
1507.50000    0.00369
1508.00000   -0.00021
1508.50000   -0.00330
1509.00000   -0.00563
1509.50000   -0.00727
1510.00000   -0.00829
1510.50000   -0.00881
1511.00000   -0.00891
1511.50000   -0.00869
1512.00000   -0.00827
1512.50000   -0.00771
1513.00000   -0.00712
1513.50000   -0.00656
1514.00000   -0.00610
1514.50000   -0.00576
1515.00000   -0.00559
1515.50000   -0.00561
1516.00000   -0.00582
1516.50000   -0.00622
1517.00000   -0.00681
1517.50000   -0.00758
1518.00000   -0.00850
1518.50000   -0.00958
1519.00000   -0.01081
1519.50000   -0.01218
1520.00000   -0.01370
1520.50000   -0.01537
1521.00000   -0.01722
1521.50000   -0.01927
1522.00000   -0.02154
1522.50000   -0.02405
1523.00000   -0.02682
1523.50000   -0.02988
1524.00000   -0.03323
1524.50000   -0.03687
1525.00000   -0.04078
1525.50000   -0.04492
1526.00000   -0.04926
1526.50000   -0.05372
1527.00000   -0.05823
1527.50000   -0.06271
1528.00000   -0.06706
1528.50000   -0.07117
1529.00000   -0.07494
1529.50000   -0.07828
1530.00000   -0.08108
1530.50000   -0.08326
1531.00000   -0.08477
1531.50000   -0.08555
1532.00000   -0.08557
1532.50000   -0.08483
1533.00000   -0.08334
1533.50000   -0.08116
1534.00000   -0.07832
1534.50000   -0.07492
1535.00000   -0.07104
1535.50000   -0.06678
1536.00000   -0.06225
1536.50000   -0.05755
1537.00000   -0.05280
1537.50000   -0.04809
1538.00000   -0.04352
1538.50000   -0.03917
1539.00000   -0.03512
1539.50000   -0.03142
1540.00000   -0.02813
1540.50000   -0.02529
1541.00000   -0.02292
1541.50000   -0.02102
1542.00000   -0.01962
1542.50000   -0.01869
1543.00000   -0.01822
1543.50000   -0.01818
1544.00000   -0.01855
1544.50000   -0.01927
1545.00000   -0.02029
1545.50000   -0.02155
1546.00000   -0.02297
1546.50000   -0.02446
1547.00000   -0.02592
1547.50000   -0.02726
1548.00000   -0.02835
1548.50000   -0.02909
1549.00000   -0.02934
1549.50000   -0.02899
1550.00000   -0.02793
1550.50000   -0.02605
1551.00000   -0.02326
1551.50000   -0.01948
1552.00000   -0.01464
1552.50000   -0.00872
1553.00000   -0.00170
1553.50000    0.00641
1554.00000    0.01559
1554.50000    0.02578
1555.00000    0.03692
1555.50000    0.04893
1556.00000    0.06174
1556.50000    0.07526
1557.00000    0.08943
1557.50000    0.10418
1558.00000    0.11948
1558.50000    0.13530
1559.00000    0.15165
1559.50000    0.16858
1560.00000    0.18613
1560.50000    0.20440
1561.00000    0.22350
1561.50000    0.24356
1562.00000    0.26473
1562.50000    0.28716
1563.00000    0.31102
1563.50000    0.33646
1564.00000    0.36363
1564.50000    0.39268
1565.00000    0.42373
1565.50000    0.45689
1566.00000    0.49224
1566.50000    0.52984
1567.00000    0.56975
1567.50000    0.61200
1568.00000    0.65660
1568.50000    0.70355
1569.00000    0.75285
1569.50000    0.80448
1570.00000    0.85844
1570.50000    0.91471
1571.00000    0.97325
1571.50000    1.03406
1572.00000    1.09710
1572.50000    1.16234
1573.00000    1.22972
1573.50000    1.29920
1574.00000    1.37070
1574.50000    1.44411
1575.00000    1.51931
1575.50000    1.59615
1576.00000    1.67444
1576.50000    1.75394
1577.00000    1.83441
1577.50000    1.91554
1578.00000    1.99701
1578.50000    2.07843
1579.00000    2.15941
1579.50000    2.23951
1580.00000    2.31827
1580.50000    2.39521
1581.00000    2.46980
1581.50000    2.54153
1582.00000    2.60985
1582.50000    2.67423
1583.00000    2.73410
1583.50000    2.78892
1584.00000    2.83814
1584.50000    2.88124
1585.00000    2.91771
1585.50000    2.94709
1586.00000    2.96894
1586.50000    2.98289
1587.00000    2.98861
1587.50000    2.98586
1588.00000    2.97449
1588.50000    2.95441
1589.00000    2.92567
1589.50000    2.88839
1590.00000    2.84282
1590.50000    2.78931
1591.00000    2.72834
1591.50000    2.66046
1592.00000    2.58632
1592.50000    2.50667
1593.00000    2.42230
1593.50000    2.33405
1594.00000    2.24281
1594.50000    2.14944
1595.00000    2.05483
1595.50000    1.95980
1596.00000    1.86515
1596.50000    1.77160
1597.00000    1.67979
1597.50000    1.59026
1598.00000    1.50346
1598.50000    1.41975
1599.00000    1.33935
1599.50000    1.26243
1600.00000    1.18902
1600.50000    1.11911
1601.00000    1.05259
1601.50000    0.98931
1602.00000    0.92909
1602.50000    0.87172
1603.00000    0.81697
1603.50000    0.76463
1604.00000    0.71449
1604.50000    0.66637
1605.00000    0.62012
1605.50000    0.57561
1606.00000    0.53276
1606.50000    0.49152
1607.00000    0.45185
1607.50000    0.41375
1608.00000    0.37724
1608.50000    0.34235
1609.00000    0.30911
1609.50000    0.27754
1610.00000    0.24769
1610.50000    0.21954
1611.00000    0.19312
1611.50000    0.16838
1612.00000    0.14531
1612.50000    0.12382
1613.00000    0.10387
1613.50000    0.08535
1614.00000    0.06818
1614.50000    0.05226
1615.00000    0.03750
1615.50000    0.02381
1616.00000    0.01112
1616.50000   -0.00063
1617.00000   -0.01149
1617.50000   -0.02146
1618.00000   -0.03054
1618.50000   -0.03871
1619.00000   -0.04592
1619.50000   -0.05209
1620.00000   -0.05715
1620.50000   -0.06099
1621.00000   -0.06352
1621.50000   -0.06461
1622.00000   -0.06417
1622.50000   -0.06210
1623.00000   -0.05832
1623.50000   -0.05278
1624.00000   -0.04543
1624.50000   -0.03628
1625.00000   -0.02537
1625.50000   -0.01276
1626.00000    0.00145
1626.50000    0.01711
1627.00000    0.03404
1627.50000    0.05203
1628.00000    0.07085
1628.50000    0.09022
1629.00000    0.10987
1629.50000    0.12951
1630.00000    0.14882
1630.50000    0.16751
1631.00000    0.18529
1631.50000    0.20187
1632.00000    0.21699
1632.50000    0.23043
1633.00000    0.24197
1633.50000    0.25145
1634.00000    0.25873
1634.50000    0.26373
1635.00000    0.26640
1635.50000    0.26673
1636.00000    0.26475
1636.50000    0.26054
1637.00000    0.25420
1637.50000    0.24587
1638.00000    0.23573
1638.50000    0.22398
1639.00000    0.21082
1639.50000    0.19651
1640.00000    0.18128
1640.50000    0.16538
1641.00000    0.14907
1641.50000    0.13260
1642.00000    0.11622
1642.50000    0.10013
1643.00000    0.08456
1643.50000    0.06968
1644.00000    0.05565
1644.50000    0.04260
1645.00000    0.03062
1645.50000    0.01978
1646.00000    0.01009
1646.50000    0.00155
1647.00000   -0.00587
1647.50000   -0.01223
1648.00000   -0.01763
1648.50000   -0.02216
1649.00000   -0.02594
1649.50000   -0.02908
1650.00000   -0.03170
1650.50000   -0.03391
1651.00000   -0.03579
1651.50000   -0.03740
1652.00000   -0.03881
1652.50000   -0.04003
1653.00000   -0.04105
1653.50000   -0.04185
1654.00000   -0.04237
1654.50000   -0.04256
1655.00000   -0.04232
1655.50000   -0.04160
1656.00000   -0.04030
1656.50000   -0.03835
1657.00000   -0.03572
1657.50000   -0.03238
1658.00000   -0.02834
1658.50000   -0.02363
1659.00000   -0.01833
1659.50000   -0.01257
1660.00000   -0.00649
1660.50000   -0.00026
1661.00000    0.00589
1661.50000    0.01177
1662.00000    0.01712
1662.50000    0.02174
1663.00000    0.02539
1663.50000    0.02788
1664.00000    0.02903
1664.50000    0.02872
1665.00000    0.02683
1665.50000    0.02333
1666.00000    0.01818
1666.50000    0.01144
1667.00000    0.00318
1667.50000   -0.00648
1668.00000   -0.01739
1668.50000   -0.02936
1669.00000   -0.04217
1669.50000   -0.05560
1670.00000   -0.06941
1670.50000   -0.08334
1671.00000   -0.09715
1671.50000   -0.11060
1672.00000   -0.12344
1672.50000   -0.13547
1673.00000   -0.14647
1673.50000   -0.15626
1674.00000   -0.16466
1674.50000   -0.17152
1675.00000   -0.17672
1675.50000   -0.18014
1676.00000   -0.18171
1676.50000   -0.18135
1677.00000   -0.17903
1677.50000   -0.17475
1678.00000   -0.16852
1678.50000   -0.16040
1679.00000   -0.15046
1679.50000   -0.13882
1680.00000   -0.12563
1680.50000   -0.11105
1681.00000   -0.09529
1681.50000   -0.07858
1682.00000   -0.06118
1682.50000   -0.04335
1683.00000   -0.02537
1683.50000   -0.00754
1684.00000    0.00987
1684.50000    0.02658
1685.00000    0.04232
1685.50000    0.05687
1686.00000    0.07001
1686.50000    0.08157
1687.00000    0.09142
1687.50000    0.09947
1688.00000    0.10565
1688.50000    0.10997
1689.00000    0.11244
1689.50000    0.11315
1690.00000    0.11219
1690.50000    0.10970
1691.00000    0.10583
1691.50000    0.10077
1692.00000    0.09472
1692.50000    0.08787
1693.00000    0.08045
1693.50000    0.07265
1694.00000    0.06469
1694.50000    0.05676
1695.00000    0.04905
1695.50000    0.04171
1696.00000    0.03491
1696.50000    0.02876
1697.00000    0.02338
1697.50000    0.01885
1698.00000    0.01523
1698.50000    0.01256
1699.00000    0.01086
1699.50000    0.01012
1700.00000    0.01032
1700.50000    0.01141
1701.00000    0.01333
1701.50000    0.01600
1702.00000    0.01935
1702.50000    0.02326
1703.00000    0.02764
1703.50000    0.03237
1704.00000    0.03735
1704.50000    0.04245
1705.00000    0.04757
1705.50000    0.05259
1706.00000    0.05743
1706.50000    0.06197
1707.00000    0.06613
1707.50000    0.06984
1708.00000    0.07302
1708.50000    0.07561
1709.00000    0.07755
1709.50000    0.07882
1710.00000    0.07937
1710.50000    0.07920
1711.00000    0.07829
1711.50000    0.07666
1712.00000    0.07432
1712.50000    0.07133
1713.00000    0.06772
1713.50000    0.06357
1714.00000    0.05896
1714.50000    0.05400
1715.00000    0.04879
1715.50000    0.04346
1716.00000    0.03814
1716.50000    0.03297
1717.00000    0.02809
1717.50000    0.02363
1718.00000    0.01972
1718.50000    0.01646
1719.00000    0.01395
1719.50000    0.01225
1720.00000    0.01139
1720.50000    0.01137
1721.00000    0.01217
1721.50000    0.01370
1722.00000    0.01586
1722.50000    0.01852
1723.00000    0.02149
1723.50000    0.02459
1724.00000    0.02760
1724.50000    0.03029
1725.00000    0.03244
1725.50000    0.03383
1726.00000    0.03426
1726.50000    0.03355
1727.00000    0.03155
1727.50000    0.02817
1728.00000    0.02334
1728.50000    0.01705
1729.00000    0.00934
1729.50000    0.00030
1730.00000   -0.00992
1730.50000   -0.02116
1731.00000   -0.03317
1731.50000   -0.04571
1732.00000   -0.05850
1732.50000   -0.07124
1733.00000   -0.08363
1733.50000   -0.09536
1734.00000   -0.10615
1734.50000   -0.11574
1735.00000   -0.12390
1735.50000   -0.13041
1736.00000   -0.13514
1736.50000   -0.13797
1737.00000   -0.13885
1737.50000   -0.13777
1738.00000   -0.13477
1738.50000   -0.12997
1739.00000   -0.12349
1739.50000   -0.11551
1740.00000   -0.10626
1740.50000   -0.09597
1741.00000   -0.08490
1741.50000   -0.07333
1742.00000   -0.06152
1742.50000   -0.04976
1743.00000   -0.03829
1743.50000   -0.02736
1744.00000   -0.01720
1744.50000   -0.00799
1745.00000    0.00010
1745.50000    0.00694
1746.00000    0.01244
1746.50000    0.01655
1747.00000    0.01922
1747.50000    0.02049
1748.00000    0.02038
1748.50000    0.01899
1749.00000    0.01641
1749.50000    0.01278
1750.00000    0.00826
1750.50000    0.00304
1751.00000   -0.00269
1751.50000   -0.00871
1752.00000   -0.01477
1752.50000   -0.02063
1753.00000   -0.02604
1753.50000   -0.03073
1754.00000   -0.03445
1754.50000   -0.03695
1755.00000   -0.03800
1755.50000   -0.03737
1756.00000   -0.03488
1756.50000   -0.03037
1757.00000   -0.02373
1757.50000   -0.01489
1758.00000   -0.00384
1758.50000    0.00937
1759.00000    0.02465
1759.50000    0.04183
1760.00000    0.06068
1760.50000    0.08093
1761.00000    0.10224
1761.50000    0.12424
1762.00000    0.14652
1762.50000    0.16865
1763.00000    0.19019
1763.50000    0.21071
1764.00000    0.22978
1764.50000    0.24701
1765.00000    0.26207
1765.50000    0.27466
1766.00000    0.28456
1766.50000    0.29159
1767.00000    0.29568
1767.50000    0.29681
1768.00000    0.29504
1768.50000    0.29047
1769.00000    0.28329
1769.50000    0.27373
1770.00000    0.26203
1770.50000    0.24850
1771.00000    0.23344
1771.50000    0.21716
1772.00000    0.19998
1772.50000    0.18220
1773.00000    0.16409
1773.50000    0.14591
1774.00000    0.12791
1774.50000    0.11028
1775.00000    0.09320
1775.50000    0.07683
1776.00000    0.06128
1776.50000    0.04667
1777.00000    0.03309
1777.50000    0.02061
1778.00000    0.00928
1778.50000   -0.00083
1779.00000   -0.00969
1779.50000   -0.01726
1780.00000   -0.02351
1780.50000   -0.02844
1781.00000   -0.03202
1781.50000   -0.03427
1782.00000   -0.03522
1782.50000   -0.03491
1783.00000   -0.03340
1783.50000   -0.03077
1784.00000   -0.02712
1784.50000   -0.02258
1785.00000   -0.01726
1785.50000   -0.01133
1786.00000   -0.00494
1786.50000    0.00175
1787.00000    0.00857
1787.50000    0.01537
1788.00000    0.02201
1788.50000    0.02833
1789.00000    0.03422
1789.50000    0.03957
1790.00000    0.04429
1790.50000    0.04832
1791.00000    0.05160
1791.50000    0.05409
1792.00000    0.05578
1792.50000    0.05665
1793.00000    0.05670
1793.50000    0.05592
1794.00000    0.05432
1794.50000    0.05189
1795.00000    0.04864
1795.50000    0.04456
1796.00000    0.03965
1796.50000    0.03391
1797.00000    0.02734
1797.50000    0.01996
1798.00000    0.01178
1798.50000    0.00284
1799.00000   -0.00680
1799.50000   -0.01706
1800.00000   -0.02784
1800.50000   -0.03900
1801.00000   -0.05038
1801.50000   -0.06179
1802.00000   -0.07304
1802.50000   -0.08387
1803.00000   -0.09406
1803.50000   -0.10335
1804.00000   -0.11147
1804.50000   -0.11818
1805.00000   -0.12323
1805.50000   -0.12641
1806.00000   -0.12753
1806.50000   -0.12641
1807.00000   -0.12294
1807.50000   -0.11705
1808.00000   -0.10869
1808.50000   -0.09790
1809.00000   -0.08473
1809.50000   -0.06931
1810.00000   -0.05179
1810.50000   -0.03240
1811.00000   -0.01139
1811.50000    0.01097
1812.00000    0.03433
1812.50000    0.05834
1813.00000    0.08264
1813.50000    0.10683
1814.00000    0.13052
1814.50000    0.15329
1815.00000    0.17475
1815.50000    0.19451
1816.00000    0.21221
1816.50000    0.22748
1817.00000    0.24004
1817.50000    0.24959
1818.00000    0.25593
1818.50000    0.25889
1819.00000    0.25837
1819.50000    0.25432
1820.00000    0.24677
1820.50000    0.23582
1821.00000    0.22166
1821.50000    0.20452
1822.00000    0.18470
1822.50000    0.16259
1823.00000    0.13859
1823.50000    0.11317
1824.00000    0.08682
1824.50000    0.06004
1825.00000    0.03334
1825.50000    0.00721
1826.00000   -0.01787
1826.50000   -0.04147
1827.00000   -0.06320
1827.50000   -0.08273
1828.00000   -0.09982
1828.50000   -0.11426
1829.00000   -0.12594
1829.50000   -0.13481
1830.00000   -0.14089
1830.50000   -0.14427
1831.00000   -0.14509
1831.50000   -0.14354
1832.00000   -0.13985
1832.50000   -0.13426
1833.00000   -0.12706
1833.50000   -0.11851
1834.00000   -0.10889
1834.50000   -0.09848
1835.00000   -0.08751
1835.50000   -0.07621
1836.00000   -0.06478
1836.50000   -0.05338
1837.00000   -0.04215
1837.50000   -0.03119
1838.00000   -0.02060
1838.50000   -0.01041
1839.00000   -0.00066
1839.50000    0.00863
1840.00000    0.01745
1840.50000    0.02582
1841.00000    0.03374
1841.50000    0.04121
1842.00000    0.04824
1842.50000    0.05482
1843.00000    0.06095
1843.50000    0.06661
1844.00000    0.07177
1844.50000    0.07639
1845.00000    0.08043
1845.50000    0.08385
1846.00000    0.08661
1846.50000    0.08866
1847.00000    0.08997
1847.50000    0.09051
1848.00000    0.09027
1848.50000    0.08924
1849.00000    0.08746
1849.50000    0.08495
1850.00000    0.08179
1850.50000    0.07804
1851.00000    0.07381
1851.50000    0.06922
1852.00000    0.06440
1852.50000    0.05948
1853.00000    0.05462
1853.50000    0.04995
1854.00000    0.04562
1854.50000    0.04175
1855.00000    0.03844
1855.50000    0.03579
1856.00000    0.03385
1856.50000    0.03263
1857.00000    0.03213
1857.50000    0.03230
1858.00000    0.03306
1858.50000    0.03431
1859.00000    0.03591
1859.50000    0.03769
1860.00000    0.03949
1860.50000    0.04114
1861.00000    0.04245
1861.50000    0.04327
1862.00000    0.04345
1862.50000    0.04286
1863.00000    0.04143
1863.50000    0.03911
1864.00000    0.03587
1864.50000    0.03174
1865.00000    0.02679
1865.50000    0.02113
1866.00000    0.01489
1866.50000    0.00823
1867.00000    0.00134
1867.50000   -0.00560
1868.00000   -0.01238
1868.50000   -0.01881
1869.00000   -0.02471
1869.50000   -0.02992
1870.00000   -0.03431
1870.50000   -0.03776
1871.00000   -0.04021
1871.50000   -0.04163
1872.00000   -0.04200
1872.50000   -0.04138
1873.00000   -0.03980
1873.50000   -0.03738
1874.00000   -0.03421
1874.50000   -0.03042
1875.00000   -0.02614
1875.50000   -0.02149
1876.00000   -0.01661
1876.50000   -0.01160
1877.00000   -0.00658
1877.50000   -0.00162
1878.00000    0.00320
1878.50000    0.00783
1879.00000    0.01222
1879.50000    0.01636
1880.00000    0.02023
1880.50000    0.02382
1881.00000    0.02712
1881.50000    0.03010
1882.00000    0.03277
1882.50000    0.03509
1883.00000    0.03703
1883.50000    0.03855
1884.00000    0.03958
1884.50000    0.04007
1885.00000    0.03996
1885.50000    0.03918
1886.00000    0.03767
1886.50000    0.03538
1887.00000    0.03226
1887.50000    0.02831
1888.00000    0.02351
1888.50000    0.01789
1889.00000    0.01150
1889.50000    0.00442
1890.00000   -0.00327
1890.50000   -0.01145
1891.00000   -0.01998
1891.50000   -0.02873
1892.00000   -0.03756
1892.50000   -0.04633
1893.00000   -0.05489
1893.50000   -0.06313
1894.00000   -0.07094
1894.50000   -0.07825
1895.00000   -0.08498
1895.50000   -0.09110
1896.00000   -0.09657
1896.50000   -0.10141
1897.00000   -0.10561
1897.50000   -0.10919
1898.00000   -0.11217
1898.50000   -0.11456
1899.00000   -0.11639
1899.50000   -0.11764
1900.00000   -0.11832
1900.50000   -0.11840
1901.00000   -0.11785
1901.50000   -0.11662
1902.00000   -0.11467
1902.50000   -0.11195
1903.00000   -0.10841
1903.50000   -0.10400
1904.00000   -0.09870
1904.50000   -0.09251
1905.00000   -0.08544
1905.50000   -0.07753
1906.00000   -0.06886
1906.50000   -0.05953
1907.00000   -0.04967
1907.50000   -0.03943
1908.00000   -0.02899
1908.50000   -0.01852
1909.00000   -0.00822
1909.50000    0.00173
1910.00000    0.01115
1910.50000    0.01990
1911.00000    0.02786
1911.50000    0.03492
1912.00000    0.04105
1912.50000    0.04622
1913.00000    0.05046
1913.50000    0.05385
1914.00000    0.05647
1914.50000    0.05845
1915.00000    0.05996
1915.50000    0.06114
1916.00000    0.06217
1916.50000    0.06322
1917.00000    0.06444
1917.50000    0.06596
1918.00000    0.06789
1918.50000    0.07031
1919.00000    0.07324
1919.50000    0.07670
1920.00000    0.08062
1920.50000    0.08494
1921.00000    0.08954
1921.50000    0.09426
1922.00000    0.09894
1922.50000    0.10340
1923.00000    0.10743
1923.50000    0.11084
1924.00000    0.11345
1924.50000    0.11509
1925.00000    0.11563
1925.50000    0.11494
1926.00000    0.11297
1926.50000    0.10969
1927.00000    0.10510
1927.50000    0.09927
1928.00000    0.09230
1928.50000    0.08433
1929.00000    0.07554
1929.50000    0.06611
1930.00000    0.05627
1930.50000    0.04624
1931.00000    0.03626
1931.50000    0.02656
1932.00000    0.01734
1932.50000    0.00879
1933.00000    0.00108
1933.50000   -0.00565
1934.00000   -0.01131
1934.50000   -0.01582
1935.00000   -0.01915
1935.50000   -0.02132
1936.00000   -0.02234
1936.50000   -0.02227
1937.00000   -0.02121
1937.50000   -0.01925
1938.00000   -0.01652
1938.50000   -0.01313
1939.00000   -0.00923
1939.50000   -0.00495
1940.00000   -0.00044
1940.50000    0.00417
1941.00000    0.00875
1941.50000    0.01315
1942.00000    0.01726
1942.50000    0.02095
1943.00000    0.02409
1943.50000    0.02657
1944.00000    0.02827
1944.50000    0.02909
1945.00000    0.02891
1945.50000    0.02765
1946.00000    0.02521
1946.50000    0.02153
1947.00000    0.01654
1947.50000    0.01023
1948.00000    0.00257
1948.50000   -0.00641
1949.00000   -0.01665
1949.50000   -0.02808
1950.00000   -0.04057
1950.50000   -0.05396
1951.00000   -0.06807
1951.50000   -0.08267
1952.00000   -0.09752
1952.50000   -0.11236
1953.00000   -0.12689
1953.50000   -0.14084
1954.00000   -0.15391
1954.50000   -0.16582
1955.00000   -0.17631
1955.50000   -0.18512
1956.00000   -0.19203
1956.50000   -0.19688
1957.00000   -0.19950
1957.50000   -0.19981
1958.00000   -0.19774
1958.50000   -0.19330
1959.00000   -0.18651
1959.50000   -0.17748
1960.00000   -0.16632
1960.50000   -0.15321
1961.00000   -0.13836
1961.50000   -0.12201
1962.00000   -0.10444
1962.50000   -0.08592
1963.00000   -0.06676
1963.50000   -0.04728
1964.00000   -0.02778
1964.50000   -0.00857
1965.00000    0.01007
1965.50000    0.02785
1966.00000    0.04454
1966.50000    0.05992
1967.00000    0.07382
1967.50000    0.08611
1968.00000    0.09669
1968.50000    0.10552
1969.00000    0.11260
1969.50000    0.11798
1970.00000    0.12173
1970.50000    0.12398
1971.00000    0.12487
1971.50000    0.12459
1972.00000    0.12331
1972.50000    0.12124
1973.00000    0.11857
1973.50000    0.11548
1974.00000    0.11216
1974.50000    0.10874
1975.00000    0.10535
1975.50000    0.10207
1976.00000    0.09896
1976.50000    0.09604
1977.00000    0.09329
1977.50000    0.09067
1978.00000    0.08811
1978.50000    0.08554
1979.00000    0.08285
1979.50000    0.07993
1980.00000    0.07669
1980.50000    0.07305
1981.00000    0.06892
1981.50000    0.06426
1982.00000    0.05904
1982.50000    0.05325
1983.00000    0.04693
1983.50000    0.04014
1984.00000    0.03293
1984.50000    0.02542
1985.00000    0.01772
1985.50000    0.00994
1986.00000    0.00221
1986.50000   -0.00535
1987.00000   -0.01263
1987.50000   -0.01951
1988.00000   -0.02592
1988.50000   -0.03178
1989.00000   -0.03704
1989.50000   -0.04165
1990.00000   -0.04559
1990.50000   -0.04884
1991.00000   -0.05139
1991.50000   -0.05323
1992.00000   -0.05434
1992.50000   -0.05471
1993.00000   -0.05431
1993.50000   -0.05311
1994.00000   -0.05104
1994.50000   -0.04806
1995.00000   -0.04409
1995.50000   -0.03905
1996.00000   -0.03287
1996.50000   -0.02548
1997.00000   -0.01680
1997.50000   -0.00677
1998.00000    0.00462
1998.50000    0.01740
1999.00000    0.03154
1999.50000    0.04700
2000.00000    0.06368
2000.50000    0.08147
2001.00000    0.10020
2001.50000    0.11968
2002.00000    0.13969
2002.50000    0.15997
2003.00000    0.18024
2003.50000    0.20021
2004.00000    0.21958
2004.50000    0.23804
2005.00000    0.25530
2005.50000    0.27105
2006.00000    0.28504
2006.50000    0.29702
2007.00000    0.30677
2007.50000    0.31413
2008.00000    0.31895
2008.50000    0.32115
2009.00000    0.32067
2009.50000    0.31753
2010.00000    0.31175
2010.50000    0.30343
2011.00000    0.29270
2011.50000    0.27972
2012.00000    0.26469
2012.50000    0.24781
2013.00000    0.22934
2013.50000    0.20952
2014.00000    0.18860
2014.50000    0.16686
2015.00000    0.14454
2015.50000    0.12189
2016.00000    0.09915
2016.50000    0.07653
2017.00000    0.05425
2017.50000    0.03249
2018.00000    0.01141
2018.50000   -0.00881
2019.00000   -0.02805
2019.50000   -0.04617
2020.00000   -0.06304
2020.50000   -0.07857
2021.00000   -0.09264
2021.50000   -0.10517
2022.00000   -0.11606
2022.50000   -0.12524
2023.00000   -0.13263
2023.50000   -0.13818
2024.00000   -0.14183
2024.50000   -0.14358
2025.00000   -0.14340
2025.50000   -0.14134
2026.00000   -0.13742
2026.50000   -0.13173
2027.00000   -0.12438
2027.50000   -0.11551
2028.00000   -0.10529
2028.50000   -0.09392
2029.00000   -0.08161
2029.50000   -0.06862
2030.00000   -0.05519
2030.50000   -0.04158
2031.00000   -0.02807
2031.50000   -0.01490
2032.00000   -0.00231
2032.50000    0.00946
2033.00000    0.02023
2033.50000    0.02982
2034.00000    0.03811
2034.50000    0.04499
2035.00000    0.05041
2035.50000    0.05433
2036.00000    0.05676
2036.50000    0.05774
2037.00000    0.05733
2037.50000    0.05562
2038.00000    0.05272
2038.50000    0.04876
2039.00000    0.04388
2039.50000    0.03822
2040.00000    0.03193
2040.50000    0.02518
2041.00000    0.01812
2041.50000    0.01092
2042.00000    0.00371
2042.50000   -0.00335
2043.00000   -0.01011
2043.50000   -0.01644
2044.00000   -0.02221
2044.50000   -0.02730
2045.00000   -0.03161
2045.50000   -0.03504
2046.00000   -0.03751
2046.50000   -0.03895
2047.00000   -0.03932
2047.50000   -0.03859
2048.00000   -0.03674
2048.50000   -0.03379
2049.00000   -0.02977
2049.50000   -0.02473
2050.00000   -0.01876
2050.50000   -0.01195
2051.00000   -0.00443
2051.50000    0.00368
2052.00000    0.01220
2052.50000    0.02098
2053.00000    0.02983
2053.50000    0.03857
2054.00000    0.04700
2054.50000    0.05494
2055.00000    0.06219
2055.50000    0.06858
2056.00000    0.07394
2056.50000    0.07814
2057.00000    0.08103
2057.50000    0.08253
2058.00000    0.08255
2058.50000    0.08106
2059.00000    0.07804
2059.50000    0.07350
2060.00000    0.06751
2060.50000    0.06015
2061.00000    0.05154
2061.50000    0.04182
2062.00000    0.03118
2062.50000    0.01981
2063.00000    0.00795
2063.50000   -0.00416
2064.00000   -0.01626
2064.50000   -0.02807
2065.00000   -0.03931
2065.50000   -0.04969
2066.00000   -0.05894
2066.50000   -0.06677
2067.00000   -0.07293
2067.50000   -0.07716
2068.00000   -0.07925
2068.50000   -0.07900
2069.00000   -0.07626
2069.50000   -0.07091
2070.00000   -0.06287
2070.50000   -0.05212
2071.00000   -0.03868
2071.50000   -0.02265
2072.00000   -0.00415
2072.50000    0.01661
2073.00000    0.03941
2073.50000    0.06393
2074.00000    0.08985
2074.50000    0.11680
2075.00000    0.14438
2075.50000    0.17219
2076.00000    0.19983
2076.50000    0.22688
2077.00000    0.25299
2077.50000    0.27782
2078.00000    0.30107
2078.50000    0.32251
2079.00000    0.34198
2079.50000    0.35937
2080.00000    0.37466
2080.50000    0.38786
2081.00000    0.39910
2081.50000    0.40851
2082.00000    0.41630
2082.50000    0.42270
2083.00000    0.42797
2083.50000    0.43237
2084.00000    0.43616
2084.50000    0.43957
2085.00000    0.44283
2085.50000    0.44609
2086.00000    0.44950
2086.50000    0.45312
2087.00000    0.45699
2087.50000    0.46110
2088.00000    0.46540
2088.50000    0.46978
2089.00000    0.47414
2089.50000    0.47834
2090.00000    0.48223
2090.50000    0.48566
2091.00000    0.48847
2091.50000    0.49055
2092.00000    0.49175
2092.50000    0.49198
2093.00000    0.49115
2093.50000    0.48918
2094.00000    0.48602
2094.50000    0.48161
2095.00000    0.47592
2095.50000    0.46891
2096.00000    0.46056
2096.50000    0.45082
2097.00000    0.43968
2097.50000    0.42709
2098.00000    0.41303
2098.50000    0.39746
2099.00000    0.38038
2099.50000    0.36176
2100.00000    0.34162
2100.50000    0.31999
2101.00000    0.29693
2101.50000    0.27251
2102.00000    0.24685
2102.50000    0.22009
2103.00000    0.19241
2103.50000    0.16402
2104.00000    0.13515
2104.50000    0.10604
2105.00000    0.07696
2105.50000    0.04820
2106.00000    0.02001
2106.50000   -0.00730
2107.00000   -0.03349
2107.50000   -0.05830
2108.00000   -0.08149
2108.50000   -0.10286
2109.00000   -0.12220
2109.50000   -0.13937
2110.00000   -0.15422
2110.50000   -0.16665
2111.00000   -0.17658
2111.50000   -0.18396
2112.00000   -0.18875
2112.50000   -0.19096
2113.00000   -0.19062
2113.50000   -0.18779
2114.00000   -0.18253
2114.50000   -0.17498
2115.00000   -0.16525
2115.50000   -0.15352
2116.00000   -0.13999
2116.50000   -0.12487
2117.00000   -0.10840
2117.50000   -0.09085
2118.00000   -0.07250
2118.50000   -0.05365
2119.00000   -0.03460
2119.50000   -0.01564
2120.00000    0.00294
2120.50000    0.02085
2121.00000    0.03785
2121.50000    0.05370
2122.00000    0.06821
2122.50000    0.08123
2123.00000    0.09265
2123.50000    0.10240
2124.00000    0.11047
2124.50000    0.11688
2125.00000    0.12171
2125.50000    0.12506
2126.00000    0.12708
2126.50000    0.12794
2127.00000    0.12783
2127.50000    0.12698
2128.00000    0.12558
2128.50000    0.12385
2129.00000    0.12199
2129.50000    0.12020
2130.00000    0.11861
2130.50000    0.11738
2131.00000    0.11658
2131.50000    0.11626
2132.00000    0.11644
2132.50000    0.11709
2133.00000    0.11813
2133.50000    0.11944
2134.00000    0.12088
2134.50000    0.12228
2135.00000    0.12344
2135.50000    0.12415
2136.00000    0.12420
2136.50000    0.12339
2137.00000    0.12153
2137.50000    0.11847
2138.00000    0.11407
2138.50000    0.10828
2139.00000    0.10104
2139.50000    0.09240
2140.00000    0.08243
2140.50000    0.07127
2141.00000    0.05910
2141.50000    0.04614
2142.00000    0.03267
2142.50000    0.01895
2143.00000    0.00530
2143.50000   -0.00800
2144.00000   -0.02066
2144.50000   -0.03244
2145.00000   -0.04311
2145.50000   -0.05253
2146.00000   -0.06057
2146.50000   -0.06719
2147.00000   -0.07241
2147.50000   -0.07630
2148.00000   -0.07899
2148.50000   -0.08065
2149.00000   -0.08149
2149.50000   -0.08176
2150.00000   -0.08169
2150.50000   -0.08155
2151.00000   -0.08156
2151.50000   -0.08194
2152.00000   -0.08285
2152.50000   -0.08444
2153.00000   -0.08679
2153.50000   -0.08991
2154.00000   -0.09379
2154.50000   -0.09836
2155.00000   -0.10349
2155.50000   -0.10902
2156.00000   -0.11475
2156.50000   -0.12049
2157.00000   -0.12598
2157.50000   -0.13101
2158.00000   -0.13536
2158.50000   -0.13880
2159.00000   -0.14117
2159.50000   -0.14229
2160.00000   -0.14206
2160.50000   -0.14039
2161.00000   -0.13724
2161.50000   -0.13259
2162.00000   -0.12648
2162.50000   -0.11899
2163.00000   -0.11020
2163.50000   -0.10026
2164.00000   -0.08932
2164.50000   -0.07754
2165.00000   -0.06511
2165.50000   -0.05223
2166.00000   -0.03910
2166.50000   -0.02590
2167.00000   -0.01283
2167.50000   -0.00005
2168.00000    0.01227
2168.50000    0.02399
2169.00000    0.03501
2169.50000    0.04523
2170.00000    0.05459
2170.50000    0.06305
2171.00000    0.07061
2171.50000    0.07729
2172.00000    0.08313
2172.50000    0.08818
2173.00000    0.09252
2173.50000    0.09624
2174.00000    0.09943
2174.50000    0.10217
2175.00000    0.10454
2175.50000    0.10662
2176.00000    0.10845
2176.50000    0.11005
2177.00000    0.11144
2177.50000    0.11258
2178.00000    0.11344
2178.50000    0.11394
2179.00000    0.11400
2179.50000    0.11350
2180.00000    0.11236
2180.50000    0.11044
2181.00000    0.10765
2181.50000    0.10390
2182.00000    0.09911
2182.50000    0.09324
2183.00000    0.08628
2183.50000    0.07826
2184.00000    0.06922
2184.50000    0.05927
2185.00000    0.04853
2185.50000    0.03719
2186.00000    0.02542
2186.50000    0.01344
2187.00000    0.00150
2187.50000   -0.01018
2188.00000   -0.02136
2188.50000   -0.03179
2189.00000   -0.04126
2189.50000   -0.04958
2190.00000   -0.05657
2190.50000   -0.06210
2191.00000   -0.06609
2191.50000   -0.06847
2192.00000   -0.06923
2192.50000   -0.06842
2193.00000   -0.06610
2193.50000   -0.06239
2194.00000   -0.05747
2194.50000   -0.05150
2195.00000   -0.04473
2195.50000   -0.03738
2196.00000   -0.02972
2196.50000   -0.02200
2197.00000   -0.01451
2197.50000   -0.00748
2198.00000   -0.00115
2198.50000    0.00427
2199.00000    0.00860
2199.50000    0.01172
2200.00000    0.01355
2200.50000    0.01405
2201.00000    0.01325
2201.50000    0.01122
2202.00000    0.00811
2202.50000    0.00408
2203.00000   -0.00063
2203.50000   -0.00577
2204.00000   -0.01107
2204.50000   -0.01621
2205.00000   -0.02092
2205.50000   -0.02491
2206.00000   -0.02792
2206.50000   -0.02973
2207.00000   -0.03018
2207.50000   -0.02914
2208.00000   -0.02655
2208.50000   -0.02242
2209.00000   -0.01682
2209.50000   -0.00986
2210.00000   -0.00173
2210.50000    0.00736
2211.00000    0.01715
2211.50000    0.02737
2212.00000    0.03774
2212.50000    0.04799
2213.00000    0.05785
2213.50000    0.06710
2214.00000    0.07555
2214.50000    0.08307
2215.00000    0.08956
2215.50000    0.09497
2216.00000    0.09931
2216.50000    0.10264
2217.00000    0.10502
2217.50000    0.10659
2218.00000    0.10747
2218.50000    0.10781
2219.00000    0.10772
2219.50000    0.10735
2220.00000    0.10680
2220.50000    0.10614
2221.00000    0.10541
2221.50000    0.10463
2222.00000    0.10379
2222.50000    0.10282
2223.00000    0.10166
2223.50000    0.10020
2224.00000    0.09834
2224.50000    0.09595
2225.00000    0.09292
2225.50000    0.08913
2226.00000    0.08448
2226.50000    0.07888
2227.00000    0.07226
2227.50000    0.06458
2228.00000    0.05579
2228.50000    0.04590
2229.00000    0.03492
2229.50000    0.02289
2230.00000    0.00984
2230.50000   -0.00414
2231.00000   -0.01897
2231.50000   -0.03455
2232.00000   -0.05078
2232.50000   -0.06751
2233.00000   -0.08460
2233.50000   -0.10189
2234.00000   -0.11920
2234.50000   -0.13635
2235.00000   -0.15312
2235.50000   -0.16929
2236.00000   -0.18465
2236.50000   -0.19895
2237.00000   -0.21196
2237.50000   -0.22346
2238.00000   -0.23323
2238.50000   -0.24107
2239.00000   -0.24680
2239.50000   -0.25030
2240.00000   -0.25144
2240.50000   -0.25017
2241.00000   -0.24645
2241.50000   -0.24032
2242.00000   -0.23184
2242.50000   -0.22112
2243.00000   -0.20831
2243.50000   -0.19361
2244.00000   -0.17724
2244.50000   -0.15943
2245.00000   -0.14047
2245.50000   -0.12063
2246.00000   -0.10020
2246.50000   -0.07947
2247.00000   -0.05873
2247.50000   -0.03826
2248.00000   -0.01833
2248.50000    0.00081
2249.00000    0.01893
2249.50000    0.03581
2250.00000    0.05125
2250.50000    0.06509
2251.00000    0.07718
2251.50000    0.08742
2252.00000    0.09571
2252.50000    0.10200
2253.00000    0.10627
2253.50000    0.10853
2254.00000    0.10884
2254.50000    0.10728
2255.00000    0.10397
2255.50000    0.09907
2256.00000    0.09277
2256.50000    0.08528
2257.00000    0.07685
2257.50000    0.06772
2258.00000    0.05817
2258.50000    0.04846
2259.00000    0.03886
2259.50000    0.02961
2260.00000    0.02094
2260.50000    0.01304
2261.00000    0.00607
2261.50000    0.00015
2262.00000   -0.00465
2262.50000   -0.00830
2263.00000   -0.01081
2263.50000   -0.01224
2264.00000   -0.01269
2264.50000   -0.01228
2265.00000   -0.01115
2265.50000   -0.00946
2266.00000   -0.00738
2266.50000   -0.00507
2267.00000   -0.00269
2267.50000   -0.00037
2268.00000    0.00178
2268.50000    0.00367
2269.00000    0.00525
2269.50000    0.00650
2270.00000    0.00740
2270.50000    0.00799
2271.00000    0.00830
2271.50000    0.00839
2272.00000    0.00832
2272.50000    0.00813
2273.00000    0.00788
2273.50000    0.00760
2274.00000    0.00731
2274.50000    0.00700
2275.00000    0.00666
2275.50000    0.00623
2276.00000    0.00568
2276.50000    0.00491
2277.00000    0.00387
2277.50000    0.00249
2278.00000    0.00070
2278.50000   -0.00152
2279.00000   -0.00420
2279.50000   -0.00731
2280.00000   -0.01080
2280.50000   -0.01458
2281.00000   -0.01853
2281.50000   -0.02249
2282.00000   -0.02627
2282.50000   -0.02967
2283.00000   -0.03247
2283.50000   -0.03445
2284.00000   -0.03541
2284.50000   -0.03515
2285.00000   -0.03353
2285.50000   -0.03041
2286.00000   -0.02574
2286.50000   -0.01947
2287.00000   -0.01165
2287.50000   -0.00236
2288.00000    0.00827
2288.50000    0.02006
2289.00000    0.03279
2289.50000    0.04622
2290.00000    0.06007
2290.50000    0.07406
2291.00000    0.08791
2291.50000    0.10134
2292.00000    0.11409
2292.50000    0.12592
2293.00000    0.13663
2293.50000    0.14604
2294.00000    0.15402
2294.50000    0.16045
2295.00000    0.16529
2295.50000    0.16849
2296.00000    0.17007
2296.50000    0.17005
2297.00000    0.16851
2297.50000    0.16551
2298.00000    0.16116
2298.50000    0.15557
2299.00000    0.14885
2299.50000    0.14113
2300.00000    0.13253
2300.50000    0.12315
2301.00000    0.11313
2301.50000    0.10255
2302.00000    0.09150
2302.50000    0.08006
2303.00000    0.06829
2303.50000    0.05625
2304.00000    0.04396
2304.50000    0.03145
2305.00000    0.01874
2305.50000    0.00584
2306.00000   -0.00725
2306.50000   -0.02050
2307.00000   -0.03391
2307.50000   -0.04743
2308.00000   -0.06101
2308.50000   -0.07459
2309.00000   -0.08807
2309.50000   -0.10132
2310.00000   -0.11419
2310.50000   -0.12651
2311.00000   -0.13809
2311.50000   -0.14869
2312.00000   -0.15810
2312.50000   -0.16609
2313.00000   -0.17241
2313.50000   -0.17685
2314.00000   -0.17921
2314.50000   -0.17933
2315.00000   -0.17707
2315.50000   -0.17237
2316.00000   -0.16518
2316.50000   -0.15556
2317.00000   -0.14358
2317.50000   -0.12941
2318.00000   -0.11327
2318.50000   -0.09543
2319.00000   -0.07621
2319.50000   -0.05600
2320.00000   -0.03518
2320.50000   -0.01420
2321.00000    0.00650
2321.50000    0.02649
2322.00000    0.04531
2322.50000    0.06257
2323.00000    0.07789
2323.50000    0.09092
2324.00000    0.10140
2324.50000    0.10910
2325.00000    0.11389
2325.50000    0.11567
2326.00000    0.11444
2326.50000    0.11029
2327.00000    0.10334
2327.50000    0.09381
2328.00000    0.08196
2328.50000    0.06810
2329.00000    0.05261
2329.50000    0.03587
2330.00000    0.01828
2330.50000    0.00027
2331.00000   -0.01776
2331.50000   -0.03541
2332.00000   -0.05232
2332.50000   -0.06816
2333.00000   -0.08264
2333.50000   -0.09552
2334.00000   -0.10663
2334.50000   -0.11582
2335.00000   -0.12302
2335.50000   -0.12821
2336.00000   -0.13141
2336.50000   -0.13267
2337.00000   -0.13211
2337.50000   -0.12984
2338.00000   -0.12604
2338.50000   -0.12087
2339.00000   -0.11451
2339.50000   -0.10717
2340.00000   -0.09905
2340.50000   -0.09034
2341.00000   -0.08123
2341.50000   -0.07192
2342.00000   -0.06259
2342.50000   -0.05340
2343.00000   -0.04451
2343.50000   -0.03606
2344.00000   -0.02818
2344.50000   -0.02097
2345.00000   -0.01451
2345.50000   -0.00887
2346.00000   -0.00407
2346.50000   -0.00013
2347.00000    0.00298
2347.50000    0.00531
2348.00000    0.00694
2348.50000    0.00797
2349.00000    0.00852
2349.50000    0.00873
2350.00000    0.00876
2350.50000    0.00875
2351.00000    0.00887
2351.50000    0.00925
2352.00000    0.01004
2352.50000    0.01134
2353.00000    0.01324
2353.50000    0.01579
2354.00000    0.01902
2354.50000    0.02291
2355.00000    0.02743
2355.50000    0.03250
2356.00000    0.03803
2356.50000    0.04390
2357.00000    0.04997
2357.50000    0.05610
2358.00000    0.06214
2358.50000    0.06794
2359.00000    0.07338
2359.50000    0.07832
2360.00000    0.08265
2360.50000    0.08628
2361.00000    0.08916
2361.50000    0.09123
2362.00000    0.09247
2362.50000    0.09289
2363.00000    0.09251
2363.50000    0.09137
2364.00000    0.08952
2364.50000    0.08706
2365.00000    0.08406
2365.50000    0.08062
2366.00000    0.07686
2366.50000    0.07289
2367.00000    0.06883
2367.50000    0.06480
2368.00000    0.06093
2368.50000    0.05734
2369.00000    0.05414
2369.50000    0.05144
2370.00000    0.04933
2370.50000    0.04790
2371.00000    0.04721
2371.50000    0.04730
2372.00000    0.04820
2372.50000    0.04989
2373.00000    0.05234
2373.50000    0.05549
2374.00000    0.05922
2374.50000    0.06343
2375.00000    0.06795
2375.50000    0.07261
2376.00000    0.07721
2376.50000    0.08152
2377.00000    0.08533
2377.50000    0.08841
2378.00000    0.09053
2378.50000    0.09149
2379.00000    0.09110
2379.50000    0.08920
2380.00000    0.08566
2380.50000    0.08042
2381.00000    0.07343
2381.50000    0.06470
2382.00000    0.05432
2382.50000    0.04238
2383.00000    0.02907
2383.50000    0.01458
2384.00000   -0.00083
2384.50000   -0.01689
2385.00000   -0.03330
2385.50000   -0.04976
2386.00000   -0.06594
2386.50000   -0.08155
2387.00000   -0.09631
2387.50000   -0.10996
2388.00000   -0.12228
2388.50000   -0.13308
2389.00000   -0.14223
2389.50000   -0.14963
2390.00000   -0.15524
2390.50000   -0.15903
2391.00000   -0.16106
2391.50000   -0.16137
2392.00000   -0.16005
2392.50000   -0.15722
2393.00000   -0.15301
2393.50000   -0.14753
2394.00000   -0.14093
2394.50000   -0.13334
2395.00000   -0.12488
2395.50000   -0.11566
2396.00000   -0.10580
2396.50000   -0.09539
2397.00000   -0.08455
2397.50000   -0.07335
2398.00000   -0.06189
2398.50000   -0.05027
2399.00000   -0.03859
2399.50000   -0.02695
2400.00000   -0.01547
2400.50000   -0.00428
2401.00000    0.00650
2401.50000    0.01674
2402.00000    0.02631
2402.50000    0.03507
2403.00000    0.04291
2403.50000    0.04973
2404.00000    0.05542
2404.50000    0.05993
2405.00000    0.06321
2405.50000    0.06524
2406.00000    0.06602
2406.50000    0.06561
2407.00000    0.06405
2407.50000    0.06145
2408.00000    0.05791
2408.50000    0.05356
2409.00000    0.04855
2409.50000    0.04303
2410.00000    0.03716
2410.50000    0.03110
2411.00000    0.02501
2411.50000    0.01906
2412.00000    0.01338
2412.50000    0.00810
2413.00000    0.00336
2413.50000   -0.00075
2414.00000   -0.00414
2414.50000   -0.00675
2415.00000   -0.00852
2415.50000   -0.00944
2416.00000   -0.00949
2416.50000   -0.00871
2417.00000   -0.00713
2417.50000   -0.00484
2418.00000   -0.00192
2418.50000    0.00150
2419.00000    0.00530
2419.50000    0.00930
2420.00000    0.01335
2420.50000    0.01725
2421.00000    0.02082
2421.50000    0.02388
2422.00000    0.02623
2422.50000    0.02772
2423.00000    0.02820
2423.50000    0.02753
2424.00000    0.02565
2424.50000    0.02248
2425.00000    0.01802
2425.50000    0.01231
2426.00000    0.00541
2426.50000   -0.00255
2427.00000   -0.01140
2427.50000   -0.02096
2428.00000   -0.03099
2428.50000   -0.04122
2429.00000   -0.05140
2429.50000   -0.06124
2430.00000   -0.07047
2430.50000   -0.07881
2431.00000   -0.08602
2431.50000   -0.09188
2432.00000   -0.09621
2432.50000   -0.09885
2433.00000   -0.09972
2433.50000   -0.09875
2434.00000   -0.09592
2434.50000   -0.09127
2435.00000   -0.08485
2435.50000   -0.07677
2436.00000   -0.06714
2436.50000   -0.05610
2437.00000   -0.04380
2437.50000   -0.03039
2438.00000   -0.01603
2438.50000   -0.00085
2439.00000    0.01500
2439.50000    0.03141
2440.00000    0.04827
2440.50000    0.06547
2441.00000    0.08293
2441.50000    0.10054
2442.00000    0.11822
2442.50000    0.13587
2443.00000    0.15338
2443.50000    0.17064
2444.00000    0.18750
2444.50000    0.20383
2445.00000    0.21947
2445.50000    0.23425
2446.00000    0.24802
2446.50000    0.26061
2447.00000    0.27189
2447.50000    0.28173
2448.00000    0.29005
2448.50000    0.29678
2449.00000    0.30192
2449.50000    0.30550
2450.00000    0.30760
2450.50000    0.30832
2451.00000    0.30783
2451.50000    0.30631
2452.00000    0.30395
2452.50000    0.30097
2453.00000    0.29757
2453.50000    0.29395
2454.00000    0.29026
2454.50000    0.28663
2455.00000    0.28315
2455.50000    0.27986
2456.00000    0.27674
2456.50000    0.27372
2457.00000    0.27072
2457.50000    0.26758
2458.00000    0.26415
2458.50000    0.26025
2459.00000    0.25568
2459.50000    0.25029
2460.00000    0.24391
2460.50000    0.23641
2461.00000    0.22772
2461.50000    0.21779
2462.00000    0.20661
2462.50000    0.19423
2463.00000    0.18073
2463.50000    0.16624
2464.00000    0.15091
2464.50000    0.13493
2465.00000    0.11849
2465.50000    0.10179
2466.00000    0.08504
2466.50000    0.06845
2467.00000    0.05221
2467.50000    0.03650
2468.00000    0.02149
2468.50000    0.00734
2469.00000   -0.00581
2469.50000   -0.01783
2470.00000   -0.02859
2470.50000   -0.03797
2471.00000   -0.04588
2471.50000   -0.05222
2472.00000   -0.05690
2472.50000   -0.05984
2473.00000   -0.06098
2473.50000   -0.06029
2474.00000   -0.05775
2474.50000   -0.05338
2475.00000   -0.04725
2475.50000   -0.03945
2476.00000   -0.03012
2476.50000   -0.01946
2477.00000   -0.00770
2477.50000    0.00489
2478.00000    0.01800
2478.50000    0.03130
2479.00000    0.04443
2479.50000    0.05705
2480.00000    0.06880
2480.50000    0.07937
2481.00000    0.08847
2481.50000    0.09587
2482.00000    0.10136
2482.50000    0.10483
2483.00000    0.10623
2483.50000    0.10555
2484.00000    0.10287
2484.50000    0.09832
2485.00000    0.09208
2485.50000    0.08438
2486.00000    0.07545
2486.50000    0.06558
2487.00000    0.05504
2487.50000    0.04409
2488.00000    0.03298
2488.50000    0.02193
2489.00000    0.01114
2489.50000    0.00077
2490.00000   -0.00907
2490.50000   -0.01829
2491.00000   -0.02685
2491.50000   -0.03471
2492.00000   -0.04187
2492.50000   -0.04836
2493.00000   -0.05418
2493.50000   -0.05937
2494.00000   -0.06396
2494.50000   -0.06794
2495.00000   -0.07135
2495.50000   -0.07416
2496.00000   -0.07639
2496.50000   -0.07800
2497.00000   -0.07899
2497.50000   -0.07933
2498.00000   -0.07903
2498.50000   -0.07808
2499.00000   -0.07649
2499.50000   -0.07429
2500.00000   -0.07154
2500.50000   -0.06829
2501.00000   -0.06464
2501.50000   -0.06069
2502.00000   -0.05654
2502.50000   -0.05231
2503.00000   -0.04811
2503.50000   -0.04406
2504.00000   -0.04026
2504.50000   -0.03679
2505.00000   -0.03371
2505.50000   -0.03107
2506.00000   -0.02889
2506.50000   -0.02714
2507.00000   -0.02579
2507.50000   -0.02479
2508.00000   -0.02405
2508.50000   -0.02347
2509.00000   -0.02296
2509.50000   -0.02239
2510.00000   -0.02166
2510.50000   -0.02066
2511.00000   -0.01930
2511.50000   -0.01751
2512.00000   -0.01523
2512.50000   -0.01241
2513.00000   -0.00905
2513.50000   -0.00514
2514.00000   -0.00073
2514.50000    0.00414
2515.00000    0.00940
2515.50000    0.01498
2516.00000    0.02078
2516.50000    0.02669
2517.00000    0.03261
2517.50000    0.03843
2518.00000    0.04403
2518.50000    0.04932
2519.00000    0.05418
2519.50000    0.05851
2520.00000    0.06222
2520.50000    0.06523
2521.00000    0.06745
2521.50000    0.06883
2522.00000    0.06931
2522.50000    0.06884
2523.00000    0.06740
2523.50000    0.06499
2524.00000    0.06160
2524.50000    0.05728
2525.00000    0.05208
2525.50000    0.04607
2526.00000    0.03935
2526.50000    0.03204
2527.00000    0.02428
2527.50000    0.01624
2528.00000    0.00808
2528.50000   -0.00000
2529.00000   -0.00783
2529.50000   -0.01521
2530.00000   -0.02197
2530.50000   -0.02794
2531.00000   -0.03297
2531.50000   -0.03693
2532.00000   -0.03975
2532.50000   -0.04134
2533.00000   -0.04169
2533.50000   -0.04080
2534.00000   -0.03870
2534.50000   -0.03547
2535.00000   -0.03119
2535.50000   -0.02599
2536.00000   -0.02000
2536.50000   -0.01338
2537.00000   -0.00629
2537.50000    0.00111
2538.00000    0.00865
2538.50000    0.01617
2539.00000    0.02350
2539.50000    0.03050
2540.00000    0.03704
2540.50000    0.04297
2541.00000    0.04818
2541.50000    0.05258
2542.00000    0.05606
2542.50000    0.05855
2543.00000    0.05999
2543.50000    0.06033
2544.00000    0.05954
2544.50000    0.05761
2545.00000    0.05456
2545.50000    0.05041
2546.00000    0.04522
2546.50000    0.03908
2547.00000    0.03207
2547.50000    0.02434
2548.00000    0.01601
2548.50000    0.00725
2549.00000   -0.00177
2549.50000   -0.01088
2550.00000   -0.01990
2550.50000   -0.02866
2551.00000   -0.03700
2551.50000   -0.04479
2552.00000   -0.05191
2552.50000   -0.05828
2553.00000   -0.06384
2553.50000   -0.06856
2554.00000   -0.07245
2554.50000   -0.07553
2555.00000   -0.07786
2555.50000   -0.07952
2556.00000   -0.08058
2556.50000   -0.08114
2557.00000   -0.08128
2557.50000   -0.08109
2558.00000   -0.08063
2558.50000   -0.07996
2559.00000   -0.07911
2559.50000   -0.07808
2560.00000   -0.07689
2560.50000   -0.07550
2561.00000   -0.07388
2561.50000   -0.07199
2562.00000   -0.06978
2562.50000   -0.06722
2563.00000   -0.06427
2563.50000   -0.06091
2564.00000   -0.05713
2564.50000   -0.05296
2565.00000   -0.04841
2565.50000   -0.04353
2566.00000   -0.03839
2566.50000   -0.03307
2567.00000   -0.02763
2567.50000   -0.02217
2568.00000   -0.01677
2568.50000   -0.01149
2569.00000   -0.00642
2569.50000   -0.00160
2570.00000    0.00291
2570.50000    0.00709
2571.00000    0.01089
2571.50000    0.01431
2572.00000    0.01732
2572.50000    0.01991
2573.00000    0.02206
2573.50000    0.02376
2574.00000    0.02497
2574.50000    0.02568
2575.00000    0.02586
2575.50000    0.02550
2576.00000    0.02459
2576.50000    0.02315
2577.00000    0.02119
2577.50000    0.01878
2578.00000    0.01601
2578.50000    0.01299
2579.00000    0.00988
2579.50000    0.00685
2580.00000    0.00413
2580.50000    0.00193
2581.00000    0.00048
2581.50000    0.00003
2582.00000    0.00077
2582.50000    0.00291
2583.00000    0.00657
2583.50000    0.01186
2584.00000    0.01880
2584.50000    0.02736
2585.00000    0.03743
2585.50000    0.04883
2586.00000    0.06133
2586.50000    0.07463
2587.00000    0.08839
2587.50000    0.10223
2588.00000    0.11576
2588.50000    0.12859
2589.00000    0.14033
2589.50000    0.15062
2590.00000    0.15916
2590.50000    0.16566
2591.00000    0.16992
2591.50000    0.17180
2592.00000    0.17120
2592.50000    0.16811
2593.00000    0.16258
2593.50000    0.15469
2594.00000    0.14462
2594.50000    0.13255
2595.00000    0.11871
2595.50000    0.10337
2596.00000    0.08682
2596.50000    0.06934
2597.00000    0.05124
2597.50000    0.03281
2598.00000    0.01436
2598.50000   -0.00385
2599.00000   -0.02155
2599.50000   -0.03852
2600.00000   -0.05453
2600.50000   -0.06942
2601.00000   -0.08304
2601.50000   -0.09529
2602.00000   -0.10609
2602.50000   -0.11542
2603.00000   -0.12328
2603.50000   -0.12971
2604.00000   -0.13476
2604.50000   -0.13852
2605.00000   -0.14109
2605.50000   -0.14259
2606.00000   -0.14314
2606.50000   -0.14285
2607.00000   -0.14183
2607.50000   -0.14017
2608.00000   -0.13795
2608.50000   -0.13523
2609.00000   -0.13205
2609.50000   -0.12843
2610.00000   -0.12438
2610.50000   -0.11988
2611.00000   -0.11494
2611.50000   -0.10953
2612.00000   -0.10364
2612.50000   -0.09728
2613.00000   -0.09045
2613.50000   -0.08319
2614.00000   -0.07554
2614.50000   -0.06757
2615.00000   -0.05937
2615.50000   -0.05104
2616.00000   -0.04270
2616.50000   -0.03449
2617.00000   -0.02653
2617.50000   -0.01896
2618.00000   -0.01190
2618.50000   -0.00547
2619.00000    0.00024
2619.50000    0.00514
2620.00000    0.00919
2620.50000    0.01237
2621.00000    0.01468
2621.50000    0.01615
2622.00000    0.01684
2622.50000    0.01685
2623.00000    0.01628
2623.50000    0.01524
2624.00000    0.01387
2624.50000    0.01231
2625.00000    0.01070
2625.50000    0.00917
2626.00000    0.00784
2626.50000    0.00681
2627.00000    0.00616
2627.50000    0.00595
2628.00000    0.00621
2628.50000    0.00694
2629.00000    0.00813
2629.50000    0.00973
2630.00000    0.01167
2630.50000    0.01388
2631.00000    0.01626
2631.50000    0.01872
2632.00000    0.02117
2632.50000    0.02353
2633.00000    0.02575
2633.50000    0.02777
2634.00000    0.02959
2634.50000    0.03122
2635.00000    0.03273
2635.50000    0.03419
2636.00000    0.03574
2636.50000    0.03753
2637.00000    0.03975
2637.50000    0.04261
2638.00000    0.04636
2638.50000    0.05125
2639.00000    0.05755
2639.50000    0.06552
2640.00000    0.07543
2640.50000    0.08755
2641.00000    0.10211
2641.50000    0.11935
2642.00000    0.13947
2642.50000    0.16265
2643.00000    0.18904
2643.50000    0.21876
2644.00000    0.25190
2644.50000    0.28852
2645.00000    0.32866
2645.50000    0.37235
2646.00000    0.41958
2646.50000    0.47037
2647.00000    0.52469
2647.50000    0.58257
2648.00000    0.64401
2648.50000    0.70905
2649.00000    0.77777
2649.50000    0.85027
2650.00000    0.92668
2650.50000    1.00717
2651.00000    1.09197
2651.50000    1.18132
2652.00000    1.27549
2652.50000    1.37478
2653.00000    1.47950
2653.50000    1.58994
2654.00000    1.70639
2654.50000    1.82912
2655.00000    1.95835
2655.50000    2.09425
2656.00000    2.23693
2656.50000    2.38643
2657.00000    2.54272
2657.50000    2.70571
2658.00000    2.87522
2658.50000    3.05101
2659.00000    3.23278
2659.50000    3.42018
2660.00000    3.61283
2660.50000    3.81030
2661.00000    4.01216
2661.50000    4.21796
2662.00000    4.42726
2662.50000    4.63963
2663.00000    4.85463
2663.50000    5.07186
2664.00000    5.29091
2664.50000    5.51139
2665.00000    5.73291
2665.50000    5.95506
2666.00000    6.17743
2666.50000    6.39959
2667.00000    6.62106
2667.50000    6.84133
2668.00000    7.05985
2668.50000    7.27603
2669.00000    7.48921
2669.50000    7.69871
2670.00000    7.90380
2670.50000    8.10369
2671.00000    8.29761
2671.50000    8.48475
2672.00000    8.66429
2672.50000    8.83542
2673.00000    8.99738
2673.50000    9.14938
2674.00000    9.29073
2674.50000    9.42073
2675.00000    9.53879
2675.50000    9.64434
2676.00000    9.73688
2676.50000    9.81600
2677.00000    9.88132
2677.50000    9.93257
2678.00000    9.96951
2678.50000    9.99202
2679.00000   10.00000
2679.50000    9.99345
2680.00000    9.97243
2680.50000    9.93706
2681.00000    9.88754
2681.50000    9.82414
2682.00000    9.74717
2682.50000    9.65703
2683.00000    9.55416
2683.50000    9.43906
2684.00000    9.31229
2684.50000    9.17444
2685.00000    9.02613
2685.50000    8.86803
2686.00000    8.70082
2686.50000    8.52518
2687.00000    8.34183
2687.50000    8.15147
2688.00000    7.95481
2688.50000    7.75255
2689.00000    7.54539
2689.50000    7.33402
2690.00000    7.11914
2690.50000    6.90143
2691.00000    6.68159
2691.50000    6.46029
2692.00000    6.23824
2692.50000    6.01612
2693.00000    5.79461
2693.50000    5.57440
2694.00000    5.35616
2694.50000    5.14053
2695.00000    4.92814
2695.50000    4.71957
2696.00000    4.51535
2696.50000    4.31595
2697.00000    4.12177
2697.50000    3.93315
2698.00000    3.75031
2698.50000    3.57344
2699.00000    3.40261
2699.50000    3.23781
2700.00000    3.07900
2700.50000    2.92603
2701.00000    2.77874
2701.50000    2.63693
2702.00000    2.50038
2702.50000    2.36888
2703.00000    2.24224
2703.50000    2.12027
2704.00000    2.00285
2704.50000    1.88989
2705.00000    1.78134
2705.50000    1.67721
2706.00000    1.57755
2706.50000    1.48245
2707.00000    1.39200
2707.50000    1.30635
2708.00000    1.22561
2708.50000    1.14991
2709.00000    1.07936
2709.50000    1.01402
2710.00000    0.95392
2710.50000    0.89905
2711.00000    0.84935
2711.50000    0.80470
2712.00000    0.76494
2712.50000    0.72983
2713.00000    0.69912
2713.50000    0.67250
2714.00000    0.64962
2714.50000    0.63011
2715.00000    0.61354
2715.50000    0.59950
2716.00000    0.58755
2716.50000    0.57723
2717.00000    0.56810
2717.50000    0.55972
2718.00000    0.55164
2718.50000    0.54347
2719.00000    0.53481
2719.50000    0.52532
2720.00000    0.51469
2720.50000    0.50266
2721.00000    0.48903
2721.50000    0.47366
2722.00000    0.45645
2722.50000    0.43741
2723.00000    0.41658
2723.50000    0.39407
2724.00000    0.37005
2724.50000    0.34474
2725.00000    0.31842
2725.50000    0.29138
2726.00000    0.26393
2726.50000    0.23643
2727.00000    0.20919
2727.50000    0.18255
2728.00000    0.15681
2728.50000    0.13226
2729.00000    0.10913
2729.50000    0.08763
2730.00000    0.06793
2730.50000    0.05014
2731.00000    0.03434
2731.50000    0.02057
2732.00000    0.00883
2732.50000   -0.00091
2733.00000   -0.00874
2733.50000   -0.01473
2734.00000   -0.01901
2734.50000   -0.02172
2735.00000   -0.02299
2735.50000   -0.02300
2736.00000   -0.02191
2736.50000   -0.01989
2737.00000   -0.01713
2737.50000   -0.01379
2738.00000   -0.01005
2738.50000   -0.00608
2739.00000   -0.00203
2739.50000    0.00194
2740.00000    0.00571
2740.50000    0.00916
2741.00000    0.01217
2741.50000    0.01467
2742.00000    0.01659
2742.50000    0.01789
2743.00000    0.01852
2743.50000    0.01850
2744.00000    0.01783
2744.50000    0.01654
2745.00000    0.01469
2745.50000    0.01234
2746.00000    0.00958
2746.50000    0.00652
2747.00000    0.00328
2747.50000   -0.00002
2748.00000   -0.00322
2748.50000   -0.00618
2749.00000   -0.00873
2749.50000   -0.01071
2750.00000   -0.01196
2750.50000   -0.01234
2751.00000   -0.01172
2751.50000   -0.00998
2752.00000   -0.00707
2752.50000   -0.00293
2753.00000    0.00242
2753.50000    0.00894
2754.00000    0.01650
2754.50000    0.02496
2755.00000    0.03410
2755.50000    0.04367
2756.00000    0.05338
2756.50000    0.06290
2757.00000    0.07189
2757.50000    0.08001
2758.00000    0.08692
2758.50000    0.09232
2759.00000    0.09593
2759.50000    0.09756
2760.00000    0.09703
2760.50000    0.09427
2761.00000    0.08927
2761.50000    0.08210
2762.00000    0.07291
2762.50000    0.06188
2763.00000    0.04928
2763.50000    0.03542
2764.00000    0.02061
2764.50000    0.00519
2765.00000   -0.01049
2765.50000   -0.02614
2766.00000   -0.04145
2766.50000   -0.05618
2767.00000   -0.07013
2767.50000   -0.08315
2768.00000   -0.09514
2768.50000   -0.10604
2769.00000   -0.11585
2769.50000   -0.12458
2770.00000   -0.13227
2770.50000   -0.13898
2771.00000   -0.14477
2771.50000   -0.14968
2772.00000   -0.15374
2772.50000   -0.15698
2773.00000   -0.15938
2773.50000   -0.16089
2774.00000   -0.16148
2774.50000   -0.16107
2775.00000   -0.15957
2775.50000   -0.15693
2776.00000   -0.15306
2776.50000   -0.14793
2777.00000   -0.14152
2777.50000   -0.13385
2778.00000   -0.12499
2778.50000   -0.11505
2779.00000   -0.10415
2779.50000   -0.09250
2780.00000   -0.08031
2780.50000   -0.06781
2781.00000   -0.05526
2781.50000   -0.04291
2782.00000   -0.03100
2782.50000   -0.01975
2783.00000   -0.00934
2783.50000    0.00007
2784.00000    0.00838
2784.50000    0.01553
2785.00000    0.02149
2785.50000    0.02630
2786.00000    0.03003
2786.50000    0.03275
2787.00000    0.03460
2787.50000    0.03569
2788.00000    0.03617
2788.50000    0.03617
2789.00000    0.03582
2789.50000    0.03523
2790.00000    0.03450
2790.50000    0.03372
2791.00000    0.03294
2791.50000    0.03221
2792.00000    0.03156
2792.50000    0.03101
2793.00000    0.03056
2793.50000    0.03021
2794.00000    0.02997
2794.50000    0.02982
2795.00000    0.02976
2795.50000    0.02979
2796.00000    0.02992
2796.50000    0.03014
2797.00000    0.03049
2797.50000    0.03098
2798.00000    0.03164
2798.50000    0.03250
2799.00000    0.03362
2799.50000    0.03504
2800.00000    0.03680
2800.50000    0.03898
2801.00000    0.04161
2801.50000    0.04475
2802.00000    0.04844
2802.50000    0.05271
2803.00000    0.05757
2803.50000    0.06303
2804.00000    0.06904
2804.50000    0.07556
2805.00000    0.08249
2805.50000    0.08972
2806.00000    0.09711
2806.50000    0.10449
2807.00000    0.11166
2807.50000    0.11841
2808.00000    0.12453
2808.50000    0.12979
2809.00000    0.13399
2809.50000    0.13693
2810.00000    0.13844
2810.50000    0.13837
2811.00000    0.13660
2811.50000    0.13309
2812.00000    0.12777
2812.50000    0.12068
2813.00000    0.11185
2813.50000    0.10136
2814.00000    0.08933
2814.50000    0.07589
2815.00000    0.06121
2815.50000    0.04547
2816.00000    0.02885
2816.50000    0.01156
2817.00000   -0.00619
2817.50000   -0.02420
2818.00000   -0.04224
2818.50000   -0.06011
2819.00000   -0.07758
2819.50000   -0.09443
2820.00000   -0.11045
2820.50000   -0.12543
2821.00000   -0.13915
2821.50000   -0.15142
2822.00000   -0.16205
2822.50000   -0.17087
2823.00000   -0.17771
2823.50000   -0.18247
2824.00000   -0.18503
2824.50000   -0.18535
2825.00000   -0.18338
2825.50000   -0.17914
2826.00000   -0.17267
2826.50000   -0.16407
2827.00000   -0.15344
2827.50000   -0.14093
2828.00000   -0.12673
2828.50000   -0.11102
2829.00000   -0.09400
2829.50000   -0.07590
2830.00000   -0.05693
2830.50000   -0.03730
2831.00000   -0.01721
2831.50000    0.00314
2832.00000    0.02358
2832.50000    0.04393
2833.00000    0.06407
2833.50000    0.08386
2834.00000    0.10318
2834.50000    0.12194
2835.00000    0.14004
2835.50000    0.15741
2836.00000    0.17396
2836.50000    0.18964
2837.00000    0.20436
2837.50000    0.21807
2838.00000    0.23070
2838.50000    0.24218
2839.00000    0.25245
2839.50000    0.26145
2840.00000    0.26912
2840.50000    0.27542
2841.00000    0.28031
2841.50000    0.28376
2842.00000    0.28576
2842.50000    0.28632
2843.00000    0.28547
2843.50000    0.28326
2844.00000    0.27975
2844.50000    0.27505
2845.00000    0.26926
2845.50000    0.26251
2846.00000    0.25495
2846.50000    0.24673
2847.00000    0.23799
2847.50000    0.22890
2848.00000    0.21959
2848.50000    0.21018
2849.00000    0.20078
2849.50000    0.19148
2850.00000    0.18232
2850.50000    0.17333
2851.00000    0.16450
2851.50000    0.15582
2852.00000    0.14722
2852.50000    0.13863
2853.00000    0.12999
2853.50000    0.12120
2854.00000    0.11219
2854.50000    0.10289
2855.00000    0.09327
2855.50000    0.08330
2856.00000    0.07300
2856.50000    0.06240
2857.00000    0.05158
2857.50000    0.04065
2858.00000    0.02973
2858.50000    0.01900
2859.00000    0.00860
2859.50000   -0.00129
2860.00000   -0.01050
2860.50000   -0.01889
2861.00000   -0.02632
2861.50000   -0.03271
2862.00000   -0.03800
2862.50000   -0.04218
2863.00000   -0.04528
2863.50000   -0.04739
2864.00000   -0.04861
2864.50000   -0.04912
2865.00000   -0.04908
2865.50000   -0.04872
2866.00000   -0.04823
2866.50000   -0.04782
2867.00000   -0.04769
2867.50000   -0.04800
2868.00000   -0.04888
2868.50000   -0.05041
2869.00000   -0.05264
2869.50000   -0.05556
2870.00000   -0.05910
2870.50000   -0.06314
2871.00000   -0.06754
2871.50000   -0.07211
2872.00000   -0.07662
2872.50000   -0.08085
2873.00000   -0.08456
2873.50000   -0.08752
2874.00000   -0.08952
2874.50000   -0.09038
2875.00000   -0.08995
2875.50000   -0.08815
2876.00000   -0.08492
2876.50000   -0.08028
2877.00000   -0.07429
2877.50000   -0.06706
2878.00000   -0.05877
2878.50000   -0.04962
2879.00000   -0.03985
2879.50000   -0.02974
2880.00000   -0.01956
2880.50000   -0.00960
2881.00000   -0.00014
2881.50000    0.00857
2882.00000    0.01629
2882.50000    0.02283
2883.00000    0.02805
2883.50000    0.03186
2884.00000    0.03421
2884.50000    0.03513
2885.00000    0.03469
2885.50000    0.03301
2886.00000    0.03025
2886.50000    0.02663
2887.00000    0.02238
2887.50000    0.01775
2888.00000    0.01301
2888.50000    0.00842
2889.00000    0.00421
2889.50000    0.00062
2890.00000   -0.00216
2890.50000   -0.00399
2891.00000   -0.00474
2891.50000   -0.00437
2892.00000   -0.00283
2892.50000   -0.00017
2893.00000    0.00357
2893.50000    0.00828
2894.00000    0.01385
2894.50000    0.02014
2895.00000    0.02701
2895.50000    0.03432
2896.00000    0.04195
2896.50000    0.04977
2897.00000    0.05770
2897.50000    0.06566
2898.00000    0.07363
2898.50000    0.08158
2899.00000    0.08950
2899.50000    0.09742
