1200.50000   -0.01735
1201.00000   -0.02348
1201.50000   -0.02941
1202.00000   -0.03497
1202.50000   -0.03997
1203.00000   -0.04418
1203.50000   -0.04740
1204.00000   -0.04944
1204.50000   -0.05012
1205.00000   -0.04931
1205.50000   -0.04692
1206.00000   -0.04290
1206.50000   -0.03727
1207.00000   -0.03008
1207.50000   -0.02145
1208.00000   -0.01154
1208.50000   -0.00055
1209.00000    0.01130
1209.50000    0.02372
1210.00000    0.03646
1210.50000    0.04921
1211.00000    0.06169
1211.50000    0.07364
1212.00000    0.08479
1212.50000    0.09491
1213.00000    0.10381
1213.50000    0.11131
1214.00000    0.11730
1214.50000    0.12169
1215.00000    0.12442
1215.50000    0.12549
1216.00000    0.12493
1216.50000    0.12278
1217.00000    0.11914
1217.50000    0.11412
1218.00000    0.10785
1218.50000    0.10047
1219.00000    0.09213
1219.50000    0.08300
1220.00000    0.07322
1220.50000    0.06297
1221.00000    0.05238
1221.50000    0.04158
1222.00000    0.03072
1222.50000    0.01989
1223.00000    0.00919
1223.50000   -0.00130
1224.00000   -0.01152
1224.50000   -0.02143
1225.00000   -0.03099
1225.50000   -0.04021
1226.00000   -0.04907
1226.50000   -0.05759
1227.00000   -0.06578
1227.50000   -0.07366
1228.00000   -0.08127
1228.50000   -0.08862
1229.00000   -0.09572
1229.50000   -0.10258
1230.00000   -0.10919
1230.50000   -0.11554
1231.00000   -0.12158
1231.50000   -0.12727
1232.00000   -0.13254
1232.50000   -0.13729
1233.00000   -0.14144
1233.50000   -0.14487
1234.00000   -0.14747
1234.50000   -0.14912
1235.00000   -0.14971
1235.50000   -0.14912
1236.00000   -0.14727
1236.50000   -0.14408
1237.00000   -0.13950
1237.50000   -0.13350
1238.00000   -0.12608
1238.50000   -0.11730
1239.00000   -0.10720
1239.50000   -0.09591
1240.00000   -0.08355
1240.50000   -0.07027
1241.00000   -0.05628
1241.50000   -0.04177
1242.00000   -0.02696
1242.50000   -0.01209
1243.00000    0.00262
1243.50000    0.01694
1244.00000    0.03065
1244.50000    0.04353
1245.00000    0.05542
1245.50000    0.06614
1246.00000    0.07555
1246.50000    0.08354
1247.00000    0.09003
1247.50000    0.09495
1248.00000    0.09828
1248.50000    0.10001
1249.00000    0.10017
1249.50000    0.09880
1250.00000    0.09598
1250.50000    0.09179
1251.00000    0.08634
1251.50000    0.07977
1252.00000    0.07221
1252.50000    0.06383
1253.00000    0.05478
1253.50000    0.04525
1254.00000    0.03542
1254.50000    0.02549
1255.00000    0.01563
1255.50000    0.00606
1256.00000   -0.00305
1256.50000   -0.01151
1257.00000   -0.01917
1257.50000   -0.02585
1258.00000   -0.03143
1258.50000   -0.03581
1259.00000   -0.03888
1259.50000   -0.04060
1260.00000   -0.04095
1260.50000   -0.03992
1261.00000   -0.03757
1261.50000   -0.03396
1262.00000   -0.02920
1262.50000   -0.02340
1263.00000   -0.01673
1263.50000   -0.00933
1264.00000   -0.00140
1264.50000    0.00689
1265.00000    0.01534
1265.50000    0.02379
1266.00000    0.03204
1266.50000    0.03996
1267.00000    0.04741
1267.50000    0.05426
1268.00000    0.06043
1268.50000    0.06586
1269.00000    0.07051
1269.50000    0.07435
1270.00000    0.07740
1270.50000    0.07969
1271.00000    0.08125
1271.50000    0.08215
1272.00000    0.08243
1272.50000    0.08217
1273.00000    0.08143
1273.50000    0.08027
1274.00000    0.07875
1274.50000    0.07692
1275.00000    0.07481
1275.50000    0.07245
1276.00000    0.06986
1276.50000    0.06705
1277.00000    0.06401
1277.50000    0.06075
1278.00000    0.05726
1278.50000    0.05354
1279.00000    0.04957
1279.50000    0.04536
1280.00000    0.04094
1280.50000    0.03631
1281.00000    0.03151
1281.50000    0.02660
1282.00000    0.02163
1282.50000    0.01666
1283.00000    0.01179
1283.50000    0.00710
1284.00000    0.00268
1284.50000   -0.00137
1285.00000   -0.00497
1285.50000   -0.00803
1286.00000   -0.01049
1286.50000   -0.01229
1287.00000   -0.01341
1287.50000   -0.01384
1288.00000   -0.01360
1288.50000   -0.01275
1289.00000   -0.01136
1289.50000   -0.00955
1290.00000   -0.00744
1290.50000   -0.00518
1291.00000   -0.00295
1291.50000   -0.00093
1292.00000    0.00070
1292.50000    0.00175
1293.00000    0.00206
1293.50000    0.00146
1294.00000   -0.00015
1294.50000   -0.00289
1295.00000   -0.00679
1295.50000   -0.01187
1296.00000   -0.01810
1296.50000   -0.02538
1297.00000   -0.03360
1297.50000   -0.04258
1298.00000   -0.05211
1298.50000   -0.06196
1299.00000   -0.07185
1299.50000   -0.08153
1300.00000   -0.09069
1300.50000   -0.09907
1301.00000   -0.10640
1301.50000   -0.11244
1302.00000   -0.11700
1302.50000   -0.11992
1303.00000   -0.12107
1303.50000   -0.12041
1304.00000   -0.11793
1304.50000   -0.11368
1305.00000   -0.10775
1305.50000   -0.10030
1306.00000   -0.09151
1306.50000   -0.08160
1307.00000   -0.07083
1307.50000   -0.05947
1308.00000   -0.04779
1308.50000   -0.03610
1309.00000   -0.02466
1309.50000   -0.01374
1310.00000   -0.00358
1310.50000    0.00560
1311.00000    0.01361
1311.50000    0.02030
1312.00000    0.02555
1312.50000    0.02928
1313.00000    0.03145
1313.50000    0.03205
1314.00000    0.03110
1314.50000    0.02865
1315.00000    0.02480
1315.50000    0.01964
1316.00000    0.01331
1316.50000    0.00595
1317.00000   -0.00227
1317.50000   -0.01118
1318.00000   -0.02058
1318.50000   -0.03028
1319.00000   -0.04009
1319.50000   -0.04980
1320.00000   -0.05921
1320.50000   -0.06813
1321.00000   -0.07637
1321.50000   -0.08375
1322.00000   -0.09011
1322.50000   -0.09530
1323.00000   -0.09921
1323.50000   -0.10173
1324.00000   -0.10279
1324.50000   -0.10234
1325.00000   -0.10038
1325.50000   -0.09691
1326.00000   -0.09199
1326.50000   -0.08570
1327.00000   -0.07814
1327.50000   -0.06945
1328.00000   -0.05978
1328.50000   -0.04930
1329.00000   -0.03821
1329.50000   -0.02669
1330.00000   -0.01493
1330.50000   -0.00314
1331.00000    0.00852
1331.50000    0.01988
1332.00000    0.03079
1332.50000    0.04112
1333.00000    0.05078
1333.50000    0.05968
1334.00000    0.06777
1334.50000    0.07504
1335.00000    0.08146
1335.50000    0.08706
1336.00000    0.09187
1336.50000    0.09592
1337.00000    0.09927
1337.50000    0.10198
1338.00000    0.10410
1338.50000    0.10567
1339.00000    0.10675
1339.50000    0.10736
1340.00000    0.10753
1340.50000    0.10727
1341.00000    0.10658
1341.50000    0.10544
1342.00000    0.10386
1342.50000    0.10181
1343.00000    0.09927
1343.50000    0.09623
1344.00000    0.09268
1344.50000    0.08862
1345.00000    0.08408
1345.50000    0.07910
1346.00000    0.07372
1346.50000    0.06803
1347.00000    0.06212
1347.50000    0.05611
1348.00000    0.05013
1348.50000    0.04432
1349.00000    0.03883
1349.50000    0.03382
1350.00000    0.02943
1350.50000    0.02581
1351.00000    0.02307
1351.50000    0.02132
1352.00000    0.02063
1352.50000    0.02106
1353.00000    0.02260
1353.50000    0.02525
1354.00000    0.02894
1354.50000    0.03358
1355.00000    0.03904
1355.50000    0.04517
1356.00000    0.05180
1356.50000    0.05873
1357.00000    0.06575
1357.50000    0.07267
1358.00000    0.07927
1358.50000    0.08536
1359.00000    0.09077
1359.50000    0.09533
1360.00000    0.09893
1360.50000    0.10145
1361.00000    0.10282
1361.50000    0.10301
1362.00000    0.10200
1362.50000    0.09980
1363.00000    0.09646
1363.50000    0.09203
1364.00000    0.08660
1364.50000    0.08024
1365.00000    0.07305
1365.50000    0.06512
1366.00000    0.05655
1366.50000    0.04742
1367.00000    0.03779
1367.50000    0.02775
1368.00000    0.01733
1368.50000    0.00657
1369.00000   -0.00449
1369.50000   -0.01583
1370.00000   -0.02745
1370.50000   -0.03934
1371.00000   -0.05148
1371.50000   -0.06386
1372.00000   -0.07647
1372.50000   -0.08926
1373.00000   -0.10221
1373.50000   -0.11523
1374.00000   -0.12826
1374.50000   -0.14119
1375.00000   -0.15391
1375.50000   -0.16626
1376.00000   -0.17810
1376.50000   -0.18923
1377.00000   -0.19948
1377.50000   -0.20863
1378.00000   -0.21647
1378.50000   -0.22280
1379.00000   -0.22741
1379.50000   -0.23009
1380.00000   -0.23066
1380.50000   -0.22896
1381.00000   -0.22487
1381.50000   -0.21828
1382.00000   -0.20913
1382.50000   -0.19742
1383.00000   -0.18318
1383.50000   -0.16652
1384.00000   -0.14757
1384.50000   -0.12655
1385.00000   -0.10370
1385.50000   -0.07935
1386.00000   -0.05383
1386.50000   -0.02754
1387.00000   -0.00089
1387.50000    0.02568
1388.00000    0.05172
1388.50000    0.07680
1389.00000    0.10048
1389.50000    0.12236
1390.00000    0.14208
1390.50000    0.15933
1391.00000    0.17384
1391.50000    0.18542
1392.00000    0.19395
1392.50000    0.19937
1393.00000    0.20170
1393.50000    0.20103
1394.00000    0.19752
1394.50000    0.19136
1395.00000    0.18284
1395.50000    0.17223
1396.00000    0.15988
1396.50000    0.14612
1397.00000    0.13131
1397.50000    0.11581
1398.00000    0.09996
1398.50000    0.08407
1399.00000    0.06845
1399.50000    0.05338
1400.00000    0.03908
1400.50000    0.02576
1401.00000    0.01360
1401.50000    0.00273
1402.00000   -0.00674
1402.50000   -0.01471
1403.00000   -0.02114
1403.50000   -0.02598
1404.00000   -0.02922
1404.50000   -0.03084
1405.00000   -0.03087
1405.50000   -0.02932
1406.00000   -0.02624
1406.50000   -0.02170
1407.00000   -0.01577
1407.50000   -0.00855
1408.00000   -0.00017
1408.50000    0.00922
1409.00000    0.01946
1409.50000    0.03034
1410.00000    0.04164
1410.50000    0.05310
1411.00000    0.06447
1411.50000    0.07546
1412.00000    0.08577
1412.50000    0.09512
1413.00000    0.10321
1413.50000    0.10977
1414.00000    0.11454
1414.50000    0.11729
1415.00000    0.11785
1415.50000    0.11605
1416.00000    0.11179
1416.50000    0.10503
1417.00000    0.09577
1417.50000    0.08406
1418.00000    0.07001
1418.50000    0.05378
1419.00000    0.03556
1419.50000    0.01560
1420.00000   -0.00581
1420.50000   -0.02838
1421.00000   -0.05176
1421.50000   -0.07562
1422.00000   -0.09960
1422.50000   -0.12335
1423.00000   -0.14653
1423.50000   -0.16881
1424.00000   -0.18989
1424.50000   -0.20946
1425.00000   -0.22730
1425.50000   -0.24316
1426.00000   -0.25686
1426.50000   -0.26825
1427.00000   -0.27723
1427.50000   -0.28373
1428.00000   -0.28771
1428.50000   -0.28919
1429.00000   -0.28822
1429.50000   -0.28489
1430.00000   -0.27932
1430.50000   -0.27166
1431.00000   -0.26209
1431.50000   -0.25081
1432.00000   -0.23804
1432.50000   -0.22401
1433.00000   -0.20896
1433.50000   -0.19312
1434.00000   -0.17673
1434.50000   -0.16000
1435.00000   -0.14315
1435.50000   -0.12637
1436.00000   -0.10981
1436.50000   -0.09363
1437.00000   -0.07794
1437.50000   -0.06283
1438.00000   -0.04836
1438.50000   -0.03457
1439.00000   -0.02149
1439.50000   -0.00909
1440.00000    0.00263
1440.50000    0.01372
1441.00000    0.02421
1441.50000    0.03416
1442.00000    0.04363
1442.50000    0.05265
1443.00000    0.06127
1443.50000    0.06954
1444.00000    0.07748
1444.50000    0.08511
1445.00000    0.09244
1445.50000    0.09946
1446.00000    0.10618
1446.50000    0.11256
1447.00000    0.11859
1447.50000    0.12422
1448.00000    0.12942
1448.50000    0.13416
1449.00000    0.13838
1449.50000    0.14206
1450.00000    0.14516
1450.50000    0.14763
1451.00000    0.14946
1451.50000    0.15061
1452.00000    0.15107
1452.50000    0.15081
1453.00000    0.14983
1453.50000    0.14811
1454.00000    0.14566
1454.50000    0.14247
1455.00000    0.13855
1455.50000    0.13391
1456.00000    0.12856
1456.50000    0.12251
1457.00000    0.11581
1457.50000    0.10847
1458.00000    0.10054
1458.50000    0.09207
1459.00000    0.08313
1459.50000    0.07377
1460.00000    0.06410
1460.50000    0.05419
1461.00000    0.04417
1461.50000    0.03414
1462.00000    0.02423
1462.50000    0.01458
1463.00000    0.00534
1463.50000   -0.00336
1464.00000   -0.01138
1464.50000   -0.01856
1465.00000   -0.02479
1465.50000   -0.02993
1466.00000   -0.03389
1466.50000   -0.03658
1467.00000   -0.03793
1467.50000   -0.03789
1468.00000   -0.03646
1468.50000   -0.03365
1469.00000   -0.02949
1469.50000   -0.02405
1470.00000   -0.01743
1470.50000   -0.00973
1471.00000   -0.00110
1471.50000    0.00832
1472.00000    0.01836
1472.50000    0.02885
1473.00000    0.03960
1473.50000    0.05045
1474.00000    0.06121
1474.50000    0.07173
1475.00000    0.08184
1475.50000    0.09139
1476.00000    0.10026
1476.50000    0.10831
1477.00000    0.11544
1477.50000    0.12154
1478.00000    0.12654
1478.50000    0.13034
1479.00000    0.13290
1479.50000    0.13413
1480.00000    0.13400
1480.50000    0.13246
1481.00000    0.12946
1481.50000    0.12499
1482.00000    0.11903
1482.50000    0.11157
1483.00000    0.10262
1483.50000    0.09222
1484.00000    0.08042
1484.50000    0.06729
1485.00000    0.05294
1485.50000    0.03748
1486.00000    0.02108
1486.50000    0.00392
1487.00000   -0.01380
1487.50000   -0.03184
1488.00000   -0.04996
1488.50000   -0.06789
1489.00000   -0.08535
1489.50000   -0.10208
1490.00000   -0.11780
1490.50000   -0.13224
1491.00000   -0.14517
1491.50000   -0.15636
1492.00000   -0.16564
1492.50000   -0.17285
1493.00000   -0.17789
1493.50000   -0.18070
1494.00000   -0.18126
1494.50000   -0.17960
1495.00000   -0.17580
1495.50000   -0.16997
1496.00000   -0.16229
1496.50000   -0.15294
1497.00000   -0.14215
1497.50000   -0.13017
1498.00000   -0.11728
1498.50000   -0.10375
1499.00000   -0.08985
1499.50000   -0.07588
1500.00000   -0.06208
1500.50000   -0.04870
1501.00000   -0.03595
1501.50000   -0.02402
1502.00000   -0.01305
1502.50000   -0.00315
1503.00000    0.00562
1503.50000    0.01325
1504.00000    0.01976
1504.50000    0.02521
1505.00000    0.02971
1505.50000    0.03339
1506.00000    0.03640
1506.50000    0.03893
1507.00000    0.04117
1507.50000    0.04331
1508.00000    0.04553
1508.50000    0.04800
1509.00000    0.05087
1509.50000    0.05427
1510.00000    0.05828
1510.50000    0.06295
1511.00000    0.06829
1511.50000    0.07426
1512.00000    0.08080
1512.50000    0.08779
1513.00000    0.09511
1513.50000    0.10258
1514.00000    0.11002
1514.50000    0.11726
1515.00000    0.12411
1515.50000    0.13037
1516.00000    0.13590
1516.50000    0.14052
1517.00000    0.14413
1517.50000    0.14663
1518.00000    0.14793
1518.50000    0.14801
1519.00000    0.14685
1519.50000    0.14444
1520.00000    0.14082
1520.50000    0.13601
1521.00000    0.13008
1521.50000    0.12306
1522.00000    0.11500
1522.50000    0.10596
1523.00000    0.09595
1523.50000    0.08502
1524.00000    0.07319
1524.50000    0.06048
1525.00000    0.04690
1525.50000    0.03248
1526.00000    0.01726
1526.50000    0.00128
1527.00000   -0.01539
1527.50000   -0.03265
1528.00000   -0.05040
1528.50000   -0.06849
1529.00000   -0.08673
1529.50000   -0.10493
1530.00000   -0.12285
1530.50000   -0.14025
1531.00000   -0.15687
1531.50000   -0.17243
1532.00000   -0.18667
1532.50000   -0.19934
1533.00000   -0.21020
1533.50000   -0.21905
1534.00000   -0.22572
1534.50000   -0.23006
1535.00000   -0.23201
1535.50000   -0.23151
1536.00000   -0.22858
1536.50000   -0.22325
1537.00000   -0.21563
1537.50000   -0.20582
1538.00000   -0.19400
1538.50000   -0.18034
1539.00000   -0.16504
1539.50000   -0.14830
1540.00000   -0.13033
1540.50000   -0.11133
1541.00000   -0.09150
1541.50000   -0.07103
1542.00000   -0.05008
1542.50000   -0.02879
1543.00000   -0.00728
1543.50000    0.01434
1544.00000    0.03599
1544.50000    0.05763
1545.00000    0.07920
1545.50000    0.10069
1546.00000    0.12210
1546.50000    0.14343
1547.00000    0.16471
1547.50000    0.18597
1548.00000    0.20726
1548.50000    0.22860
1549.00000    0.25005
1549.50000    0.27167
1550.00000    0.29348
1550.50000    0.31553
1551.00000    0.33786
1551.50000    0.36048
1552.00000    0.38341
1552.50000    0.40664
1553.00000    0.43014
1553.50000    0.45389
1554.00000    0.47783
1554.50000    0.50188
1555.00000    0.52596
1555.50000    0.54997
1556.00000    0.57381
1556.50000    0.59736
1557.00000    0.62053
1557.50000    0.64320
1558.00000    0.66531
1558.50000    0.68679
1559.00000    0.70760
1559.50000    0.72775
1560.00000    0.74725
1560.50000    0.76617
1561.00000    0.78463
1561.50000    0.80275
1562.00000    0.82073
1562.50000    0.83875
1563.00000    0.85707
1563.50000    0.87594
1564.00000    0.89563
1564.50000    0.91642
1565.00000    0.93859
1565.50000    0.96241
1566.00000    0.98813
1566.50000    1.01601
1567.00000    1.04625
1567.50000    1.07904
1568.00000    1.11454
1568.50000    1.15288
1569.00000    1.19415
1569.50000    1.23844
1570.00000    1.28578
1570.50000    1.33619
1571.00000    1.38968
1571.50000    1.44623
1572.00000    1.50580
1572.50000    1.56835
1573.00000    1.63382
1573.50000    1.70213
1574.00000    1.77321
1574.50000    1.84695
1575.00000    1.92326
1575.50000    2.00202
1576.00000    2.08309
1576.50000    2.16631
1577.00000    2.25152
1577.50000    2.33851
1578.00000    2.42707
1578.50000    2.51695
1579.00000    2.60786
1579.50000    2.69950
1580.00000    2.79152
1580.50000    2.88356
1581.00000    2.97521
1581.50000    3.06603
1582.00000    3.15556
1582.50000    3.24328
1583.00000    3.32866
1583.50000    3.41115
1584.00000    3.49016
1584.50000    3.56507
1585.00000    3.63527
1585.50000    3.70011
1586.00000    3.75895
1586.50000    3.81114
1587.00000    3.85607
1587.50000    3.89313
1588.00000    3.92174
1588.50000    3.94138
1589.00000    3.95158
1589.50000    3.95196
1590.00000    3.94220
1590.50000    3.92210
1591.00000    3.89154
1591.50000    3.85054
1592.00000    3.79922
1592.50000    3.73784
1593.00000    3.66677
1593.50000    3.58652
1594.00000    3.49770
1594.50000    3.40104
1595.00000    3.29735
1595.50000    3.18757
1596.00000    3.07264
1596.50000    2.95361
1597.00000    2.83151
1597.50000    2.70741
1598.00000    2.58234
1598.50000    2.45733
1599.00000    2.33333
1599.50000    2.21122
1600.00000    2.09181
1600.50000    1.97582
1601.00000    1.86384
1601.50000    1.75639
1602.00000    1.65386
1602.50000    1.55654
1603.00000    1.46464
1603.50000    1.37825
1604.00000    1.29739
1604.50000    1.22203
1605.00000    1.15204
1605.50000    1.08727
1606.00000    1.02753
1606.50000    0.97259
1607.00000    0.92223
1607.50000    0.87620
1608.00000    0.83424
1608.50000    0.79614
1609.00000    0.76165
1609.50000    0.73055
1610.00000    0.70263
1610.50000    0.67770
1611.00000    0.65556
1611.50000    0.63602
1612.00000    0.61890
1612.50000    0.60399
1613.00000    0.59112
1613.50000    0.58006
1614.00000    0.57062
1614.50000    0.56257
1615.00000    0.55567
1615.50000    0.54969
1616.00000    0.54436
1616.50000    0.53944
1617.00000    0.53467
1617.50000    0.52978
1618.00000    0.52452
1618.50000    0.51866
1619.00000    0.51197
1619.50000    0.50427
1620.00000    0.49536
1620.50000    0.48513
1621.00000    0.47346
1621.50000    0.46031
1622.00000    0.44565
1622.50000    0.42952
1623.00000    0.41201
1623.50000    0.39323
1624.00000    0.37336
1624.50000    0.35260
1625.00000    0.33121
1625.50000    0.30944
1626.00000    0.28760
1626.50000    0.26598
1627.00000    0.24489
1627.50000    0.22462
1628.00000    0.20544
1628.50000    0.18761
1629.00000    0.17133
1629.50000    0.15675
1630.00000    0.14400
1630.50000    0.13311
1631.00000    0.12408
1631.50000    0.11683
1632.00000    0.11124
1632.50000    0.10710
1633.00000    0.10419
1633.50000    0.10223
1634.00000    0.10090
1634.50000    0.09988
1635.00000    0.09885
1635.50000    0.09749
1636.00000    0.09550
1636.50000    0.09262
1637.00000    0.08864
1637.50000    0.08339
1638.00000    0.07678
1638.50000    0.06876
1639.00000    0.05937
1639.50000    0.04869
1640.00000    0.03685
1640.50000    0.02406
1641.00000    0.01054
1641.50000   -0.00346
1642.00000   -0.01765
1642.50000   -0.03176
1643.00000   -0.04551
1643.50000   -0.05864
1644.00000   -0.07091
1644.50000   -0.08212
1645.00000   -0.09211
1645.50000   -0.10074
1646.00000   -0.10793
1646.50000   -0.11364
1647.00000   -0.11785
1647.50000   -0.12059
1648.00000   -0.12191
1648.50000   -0.12187
1649.00000   -0.12056
1649.50000   -0.11806
1650.00000   -0.11447
1650.50000   -0.10990
1651.00000   -0.10443
1651.50000   -0.09815
1652.00000   -0.09115
1652.50000   -0.08353
1653.00000   -0.07536
1653.50000   -0.06674
1654.00000   -0.05776
1654.50000   -0.04853
1655.00000   -0.03914
1655.50000   -0.02973
1656.00000   -0.02041
1656.50000   -0.01133
1657.00000   -0.00261
1657.50000    0.00560
1658.00000    0.01317
1658.50000    0.01996
1659.00000    0.02587
1659.50000    0.03079
1660.00000    0.03466
1660.50000    0.03743
1661.00000    0.03908
1661.50000    0.03964
1662.00000    0.03913
1662.50000    0.03764
1663.00000    0.03527
1663.50000    0.03213
1664.00000    0.02835
1664.50000    0.02409
1665.00000    0.01947
1665.50000    0.01465
1666.00000    0.00976
1666.50000    0.00491
1667.00000    0.00020
1667.50000   -0.00430
1668.00000   -0.00853
1668.50000   -0.01245
1669.00000   -0.01607
1669.50000   -0.01940
1670.00000   -0.02245
1670.50000   -0.02529
1671.00000   -0.02794
1671.50000   -0.03046
1672.00000   -0.03291
1672.50000   -0.03532
1673.00000   -0.03772
1673.50000   -0.04013
1674.00000   -0.04257
1674.50000   -0.04501
1675.00000   -0.04743
1675.50000   -0.04980
1676.00000   -0.05206
1676.50000   -0.05415
1677.00000   -0.05600
1677.50000   -0.05753
1678.00000   -0.05867
1678.50000   -0.05933
1679.00000   -0.05945
1679.50000   -0.05897
1680.00000   -0.05782
1680.50000   -0.05596
1681.00000   -0.05335
1681.50000   -0.04999
1682.00000   -0.04586
1682.50000   -0.04099
1683.00000   -0.03541
1683.50000   -0.02916
1684.00000   -0.02233
1684.50000   -0.01500
1685.00000   -0.00727
1685.50000    0.00072
1686.00000    0.00886
1686.50000    0.01698
1687.00000    0.02493
1687.50000    0.03255
1688.00000    0.03969
1688.50000    0.04617
1689.00000    0.05185
1689.50000    0.05659
1690.00000    0.06027
1690.50000    0.06280
1691.00000    0.06410
1691.50000    0.06413
1692.00000    0.06287
1692.50000    0.06035
1693.00000    0.05662
1693.50000    0.05175
1694.00000    0.04586
1694.50000    0.03909
1695.00000    0.03160
1695.50000    0.02355
1696.00000    0.01514
1696.50000    0.00655
1697.00000   -0.00203
1697.50000   -0.01040
1698.00000   -0.01841
1698.50000   -0.02588
1699.00000   -0.03268
1699.50000   -0.03869
1700.00000   -0.04379
1700.50000   -0.04791
1701.00000   -0.05097
1701.50000   -0.05291
1702.00000   -0.05371
1702.50000   -0.05331
1703.00000   -0.05172
1703.50000   -0.04890
1704.00000   -0.04484
1704.50000   -0.03954
1705.00000   -0.03300
1705.50000   -0.02520
1706.00000   -0.01617
1706.50000   -0.00592
1707.00000    0.00554
1707.50000    0.01815
1708.00000    0.03188
1708.50000    0.04664
1709.00000    0.06234
1709.50000    0.07888
1710.00000    0.09611
1710.50000    0.11390
1711.00000    0.13207
1711.50000    0.15045
1712.00000    0.16884
1712.50000    0.18707
1713.00000    0.20494
1713.50000    0.22229
1714.00000    0.23896
1714.50000    0.25480
1715.00000    0.26970
1715.50000    0.28357
1716.00000    0.29636
1716.50000    0.30803
1717.00000    0.31856
1717.50000    0.32799
1718.00000    0.33632
1718.50000    0.34362
1719.00000    0.34993
1719.50000    0.35529
1720.00000    0.35974
1720.50000    0.36331
1721.00000    0.36601
1721.50000    0.36781
1722.00000    0.36868
1722.50000    0.36855
1723.00000    0.36733
1723.50000    0.36491
1724.00000    0.36116
1724.50000    0.35594
1725.00000    0.34912
1725.50000    0.34057
1726.00000    0.33017
1726.50000    0.31783
1727.00000    0.30349
1727.50000    0.28713
1728.00000    0.26878
1728.50000    0.24849
1729.00000    0.22639
1729.50000    0.20265
1730.00000    0.17747
1730.50000    0.15111
1731.00000    0.12387
1731.50000    0.09606
1732.00000    0.06804
1732.50000    0.04016
1733.00000    0.01279
1733.50000   -0.01371
1734.00000   -0.03898
1734.50000   -0.06269
1735.00000   -0.08453
1735.50000   -0.10425
1736.00000   -0.12159
1736.50000   -0.13638
1737.00000   -0.14847
1737.50000   -0.15776
1738.00000   -0.16422
1738.50000   -0.16784
1739.00000   -0.16867
1739.50000   -0.16681
1740.00000   -0.16238
1740.50000   -0.15556
1741.00000   -0.14655
1741.50000   -0.13557
1742.00000   -0.12288
1742.50000   -0.10873
1743.00000   -0.09340
1743.50000   -0.07718
1744.00000   -0.06035
1744.50000   -0.04319
1745.00000   -0.02596
1745.50000   -0.00892
1746.00000    0.00769
1746.50000    0.02365
1747.00000    0.03875
1747.50000    0.05283
1748.00000    0.06572
1748.50000    0.07732
1749.00000    0.08750
1749.50000    0.09620
1750.00000    0.10336
1750.50000    0.10895
1751.00000    0.11296
1751.50000    0.11540
1752.00000    0.11629
1752.50000    0.11568
1753.00000    0.11363
1753.50000    0.11020
1754.00000    0.10549
1754.50000    0.09958
1755.00000    0.09259
1755.50000    0.08464
1756.00000    0.07586
1756.50000    0.06637
1757.00000    0.05632
1757.50000    0.04586
1758.00000    0.03514
1758.50000    0.02431
1759.00000    0.01351
1759.50000    0.00290
1760.00000   -0.00740
1760.50000   -0.01724
1761.00000   -0.02654
1761.50000   -0.03517
1762.00000   -0.04307
1762.50000   -0.05016
1763.00000   -0.05640
1763.50000   -0.06175
1764.00000   -0.06622
1764.50000   -0.06979
1765.00000   -0.07247
1765.50000   -0.07430
1766.00000   -0.07528
1766.50000   -0.07545
1767.00000   -0.07484
1767.50000   -0.07345
1768.00000   -0.07132
1768.50000   -0.06844
1769.00000   -0.06481
1769.50000   -0.06045
1770.00000   -0.05533
1770.50000   -0.04946
1771.00000   -0.04284
1771.50000   -0.03548
1772.00000   -0.02740
1772.50000   -0.01865
1773.00000   -0.00928
1773.50000    0.00062
1774.00000    0.01093
1774.50000    0.02151
1775.00000    0.03220
1775.50000    0.04280
1776.00000    0.05309
1776.50000    0.06286
1777.00000    0.07188
1777.50000    0.07990
1778.00000    0.08670
1778.50000    0.09209
1779.00000    0.09588
1779.50000    0.09792
1780.00000    0.09811
1780.50000    0.09640
1781.00000    0.09277
1781.50000    0.08729
1782.00000    0.08004
1782.50000    0.07117
1783.00000    0.06087
1783.50000    0.04938
1784.00000    0.03695
1784.50000    0.02386
1785.00000    0.01041
1785.50000   -0.00311
1786.00000   -0.01641
1786.50000   -0.02921
1787.00000   -0.04126
1787.50000   -0.05235
1788.00000   -0.06230
1788.50000   -0.07096
1789.00000   -0.07824
1789.50000   -0.08406
1790.00000   -0.08842
1790.50000   -0.09133
1791.00000   -0.09283
1791.50000   -0.09299
1792.00000   -0.09191
1792.50000   -0.08968
1793.00000   -0.08641
1793.50000   -0.08220
1794.00000   -0.07715
1794.50000   -0.07133
1795.00000   -0.06481
1795.50000   -0.05765
1796.00000   -0.04987
1796.50000   -0.04152
1797.00000   -0.03259
1797.50000   -0.02311
1798.00000   -0.01308
1798.50000   -0.00253
1799.00000    0.00850
1799.50000    0.01995
1800.00000    0.03174
1800.50000    0.04374
1801.00000    0.05580
1801.50000    0.06774
1802.00000    0.07935
1802.50000    0.09037
1803.00000    0.10055
1803.50000    0.10961
1804.00000    0.11726
1804.50000    0.12325
1805.00000    0.12731
1805.50000    0.12925
1806.00000    0.12887
1806.50000    0.12608
1807.00000    0.12083
1807.50000    0.11313
1808.00000    0.10308
1808.50000    0.09086
1809.00000    0.07671
1809.50000    0.06094
1810.00000    0.04392
1810.50000    0.02604
1811.00000    0.00775
1811.50000   -0.01052
1812.00000   -0.02833
1812.50000   -0.04527
1813.00000   -0.06096
1813.50000   -0.07508
1814.00000   -0.08739
1814.50000   -0.09769
1815.00000   -0.10588
1815.50000   -0.11193
1816.00000   -0.11587
1816.50000   -0.11781
1817.00000   -0.11792
1817.50000   -0.11640
1818.00000   -0.11351
1818.50000   -0.10950
1819.00000   -0.10463
1819.50000   -0.09916
1820.00000   -0.09333
1820.50000   -0.08733
1821.00000   -0.08131
1821.50000   -0.07541
1822.00000   -0.06968
1822.50000   -0.06415
1823.00000   -0.05880
1823.50000   -0.05359
1824.00000   -0.04843
1824.50000   -0.04324
1825.00000   -0.03792
1825.50000   -0.03238
1826.00000   -0.02654
1826.50000   -0.02034
1827.00000   -0.01374
1827.50000   -0.00674
1828.00000    0.00063
1828.50000    0.00833
1829.00000    0.01628
1829.50000    0.02439
1830.00000    0.03254
1830.50000    0.04063
1831.00000    0.04855
1831.50000    0.05618
1832.00000    0.06346
1832.50000    0.07031
1833.00000    0.07668
1833.50000    0.08257
1834.00000    0.08799
1834.50000    0.09297
1835.00000    0.09759
1835.50000    0.10192
1836.00000    0.10607
1836.50000    0.11016
1837.00000    0.11432
1837.50000    0.11865
1838.00000    0.12330
1838.50000    0.12836
1839.00000    0.13394
1839.50000    0.14012
1840.00000    0.14696
1840.50000    0.15451
1841.00000    0.16279
1841.50000    0.17179
1842.00000    0.18149
1842.50000    0.19184
1843.00000    0.20277
1843.50000    0.21420
1844.00000    0.22602
1844.50000    0.23811
1845.00000    0.25033
1845.50000    0.26255
1846.00000    0.27462
1846.50000    0.28638
1847.00000    0.29769
1847.50000    0.30839
1848.00000    0.31836
1848.50000    0.32745
1849.00000    0.33555
1849.50000    0.34255
1850.00000    0.34837
1850.50000    0.35293
1851.00000    0.35619
1851.50000    0.35810
1852.00000    0.35864
1852.50000    0.35779
1853.00000    0.35555
1853.50000    0.35191
1854.00000    0.34688
1854.50000    0.34046
1855.00000    0.33263
1855.50000    0.32337
1856.00000    0.31266
1856.50000    0.30047
1857.00000    0.28675
1857.50000    0.27146
1858.00000    0.25454
1858.50000    0.23595
1859.00000    0.21567
1859.50000    0.19367
1860.00000    0.16997
1860.50000    0.14461
1861.00000    0.11766
1861.50000    0.08925
1862.00000    0.05952
1862.50000    0.02869
1863.00000   -0.00300
1863.50000   -0.03528
1864.00000   -0.06782
1864.50000   -0.10027
1865.00000   -0.13228
1865.50000   -0.16346
1866.00000   -0.19344
1866.50000   -0.22184
1867.00000   -0.24830
1867.50000   -0.27249
1868.00000   -0.29411
1868.50000   -0.31289
1869.00000   -0.32860
1869.50000   -0.34106
1870.00000   -0.35014
1870.50000   -0.35575
1871.00000   -0.35786
1871.50000   -0.35646
1872.00000   -0.35163
1872.50000   -0.34344
1873.00000   -0.33204
1873.50000   -0.31761
1874.00000   -0.30037
1874.50000   -0.28056
1875.00000   -0.25846
1875.50000   -0.23441
1876.00000   -0.20873
1876.50000   -0.18179
1877.00000   -0.15399
1877.50000   -0.12572
1878.00000   -0.09740
1878.50000   -0.06943
1879.00000   -0.04223
1879.50000   -0.01618
1880.00000    0.00833
1880.50000    0.03097
1881.00000    0.05143
1881.50000    0.06945
1882.00000    0.08483
1882.50000    0.09741
1883.00000    0.10710
1883.50000    0.11387
1884.00000    0.11775
1884.50000    0.11884
1885.00000    0.11727
1885.50000    0.11325
1886.00000    0.10701
1886.50000    0.09884
1887.00000    0.08904
1887.50000    0.07795
1888.00000    0.06591
1888.50000    0.05328
1889.00000    0.04039
1889.50000    0.02760
1890.00000    0.01523
1890.50000    0.00358
1891.00000   -0.00705
1891.50000   -0.01643
1892.00000   -0.02432
1892.50000   -0.03055
1893.00000   -0.03499
1893.50000   -0.03752
1894.00000   -0.03812
1894.50000   -0.03676
1895.00000   -0.03351
1895.50000   -0.02846
1896.00000   -0.02177
1896.50000   -0.01361
1897.00000   -0.00423
1897.50000    0.00610
1898.00000    0.01709
1898.50000    0.02842
1899.00000    0.03976
1899.50000    0.05081
1900.00000    0.06125
1900.50000    0.07081
1901.00000    0.07926
1901.50000    0.08643
1902.00000    0.09217
1902.50000    0.09644
1903.00000    0.09924
1903.50000    0.10065
1904.00000    0.10080
1904.50000    0.09989
1905.00000    0.09816
1905.50000    0.09588
1906.00000    0.09335
1906.50000    0.09087
1907.00000    0.08874
1907.50000    0.08720
1908.00000    0.08649
1908.50000    0.08678
1909.00000    0.08818
1909.50000    0.09074
1910.00000    0.09442
1910.50000    0.09915
1911.00000    0.10479
1911.50000    0.11112
1912.00000    0.11793
1912.50000    0.12496
1913.00000    0.13193
1913.50000    0.13859
1914.00000    0.14468
1914.50000    0.14998
1915.00000    0.15432
1915.50000    0.15758
1916.00000    0.15966
1916.50000    0.16055
1917.00000    0.16028
1917.50000    0.15893
1918.00000    0.15661
1918.50000    0.15349
1919.00000    0.14975
1919.50000    0.14556
1920.00000    0.14114
1920.50000    0.13667
1921.00000    0.13229
1921.50000    0.12816
1922.00000    0.12437
1922.50000    0.12097
1923.00000    0.11798
1923.50000    0.11535
1924.00000    0.11302
1924.50000    0.11085
1925.00000    0.10871
1925.50000    0.10639
1926.00000    0.10371
1926.50000    0.10046
1927.00000    0.09642
1927.50000    0.09140
1928.00000    0.08523
1928.50000    0.07775
1929.00000    0.06887
1929.50000    0.05851
1930.00000    0.04667
1930.50000    0.03337
1931.00000    0.01872
1931.50000    0.00283
1932.00000   -0.01410
1932.50000   -0.03184
1933.00000   -0.05015
1933.50000   -0.06874
1934.00000   -0.08730
1934.50000   -0.10553
1935.00000   -0.12313
1935.50000   -0.13978
1936.00000   -0.15522
1936.50000   -0.16918
1937.00000   -0.18146
1937.50000   -0.19187
1938.00000   -0.20025
1938.50000   -0.20650
1939.00000   -0.21055
1939.50000   -0.21237
1940.00000   -0.21195
1940.50000   -0.20934
1941.00000   -0.20458
1941.50000   -0.19776
1942.00000   -0.18896
1942.50000   -0.17829
1943.00000   -0.16588
1943.50000   -0.15185
1944.00000   -0.13634
1944.50000   -0.11949
1945.00000   -0.10147
1945.50000   -0.08244
1946.00000   -0.06260
1946.50000   -0.04215
1947.00000   -0.02131
1947.50000   -0.00033
1948.00000    0.02053
1948.50000    0.04099
1949.00000    0.06074
1949.50000    0.07949
1950.00000    0.09692
1950.50000    0.11273
1951.00000    0.12664
1951.50000    0.13837
1952.00000    0.14768
1952.50000    0.15437
1953.00000    0.15830
1953.50000    0.15934
1954.00000    0.15747
1954.50000    0.15268
1955.00000    0.14505
1955.50000    0.13470
1956.00000    0.12182
1956.50000    0.10664
1957.00000    0.08942
1957.50000    0.07049
1958.00000    0.05017
1958.50000    0.02883
1959.00000    0.00685
1959.50000   -0.01540
1960.00000   -0.03754
1960.50000   -0.05922
1961.00000   -0.08007
1961.50000   -0.09978
1962.00000   -0.11805
1962.50000   -0.13460
1963.00000   -0.14921
1963.50000   -0.16168
1964.00000   -0.17184
1964.50000   -0.17960
1965.00000   -0.18488
1965.50000   -0.18767
1966.00000   -0.18799
1966.50000   -0.18592
1967.00000   -0.18159
1967.50000   -0.17516
1968.00000   -0.16685
1968.50000   -0.15689
1969.00000   -0.14556
1969.50000   -0.13317
1970.00000   -0.12002
1970.50000   -0.10645
1971.00000   -0.09275
1971.50000   -0.07923
1972.00000   -0.06616
1972.50000   -0.05380
1973.00000   -0.04235
1973.50000   -0.03198
1974.00000   -0.02278
1974.50000   -0.01484
1975.00000   -0.00817
1975.50000   -0.00275
1976.00000    0.00151
1976.50000    0.00469
1977.00000    0.00692
1977.50000    0.00835
1978.00000    0.00911
1978.50000    0.00935
1979.00000    0.00922
1979.50000    0.00881
1980.00000    0.00823
1980.50000    0.00754
1981.00000    0.00677
1981.50000    0.00594
1982.00000    0.00502
1982.50000    0.00398
1983.00000    0.00276
1983.50000    0.00131
1984.00000   -0.00044
1984.50000   -0.00256
1985.00000   -0.00507
1985.50000   -0.00802
1986.00000   -0.01140
1986.50000   -0.01520
1987.00000   -0.01936
1987.50000   -0.02382
1988.00000   -0.02847
1988.50000   -0.03320
1989.00000   -0.03788
1989.50000   -0.04237
1990.00000   -0.04654
1990.50000   -0.05024
1991.00000   -0.05335
1991.50000   -0.05577
1992.00000   -0.05741
1992.50000   -0.05819
1993.00000   -0.05808
1993.50000   -0.05705
1994.00000   -0.05512
1994.50000   -0.05231
1995.00000   -0.04866
1995.50000   -0.04424
1996.00000   -0.03910
1996.50000   -0.03334
1997.00000   -0.02702
1997.50000   -0.02024
1998.00000   -0.01306
1998.50000   -0.00556
1999.00000    0.00219
1999.50000    0.01012
2000.00000    0.01819
2000.50000    0.02634
2001.00000    0.03452
2001.50000    0.04268
2002.00000    0.05078
2002.50000    0.05878
2003.00000    0.06662
2003.50000    0.07425
2004.00000    0.08163
2004.50000    0.08871
2005.00000    0.09544
2005.50000    0.10178
2006.00000    0.10768
2006.50000    0.11313
2007.00000    0.11810
2007.50000    0.12260
2008.00000    0.12665
2008.50000    0.13028
2009.00000    0.13354
2009.50000    0.13653
2010.00000    0.13932
2010.50000    0.14202
2011.00000    0.14476
2011.50000    0.14766
2012.00000    0.15085
2012.50000    0.15445
2013.00000    0.15857
2013.50000    0.16331
2014.00000    0.16873
2014.50000    0.17487
2015.00000    0.18175
2015.50000    0.18933
2016.00000    0.19754
2016.50000    0.20628
2017.00000    0.21539
2017.50000    0.22468
2018.00000    0.23394
2018.50000    0.24290
2019.00000    0.25130
2019.50000    0.25884
2020.00000    0.26522
2020.50000    0.27015
2021.00000    0.27334
2021.50000    0.27452
2022.00000    0.27346
2022.50000    0.26996
2023.00000    0.26387
2023.50000    0.25509
2024.00000    0.24359
2024.50000    0.22938
2025.00000    0.21257
2025.50000    0.19332
2026.00000    0.17185
2026.50000    0.14844
2027.00000    0.12345
2027.50000    0.09726
2028.00000    0.07030
2028.50000    0.04304
2029.00000    0.01594
2029.50000   -0.01052
2030.00000   -0.03587
2030.50000   -0.05968
2031.00000   -0.08155
2031.50000   -0.10113
2032.00000   -0.11814
2032.50000   -0.13237
2033.00000   -0.14369
2033.50000   -0.15204
2034.00000   -0.15747
2034.50000   -0.16007
2035.00000   -0.16005
2035.50000   -0.15765
2036.00000   -0.15317
2036.50000   -0.14697
2037.00000   -0.13943
2037.50000   -0.13092
2038.00000   -0.12184
2038.50000   -0.11255
2039.00000   -0.10337
2039.50000   -0.09460
2040.00000   -0.08647
2040.50000   -0.07915
2041.00000   -0.07275
2041.50000   -0.06732
2042.00000   -0.06283
2042.50000   -0.05921
2043.00000   -0.05635
2043.50000   -0.05409
2044.00000   -0.05224
2044.50000   -0.05061
2045.00000   -0.04903
2045.50000   -0.04730
2046.00000   -0.04530
2046.50000   -0.04291
2047.00000   -0.04005
2047.50000   -0.03672
2048.00000   -0.03295
2048.50000   -0.02882
2049.00000   -0.02444
2049.50000   -0.01998
2050.00000   -0.01562
2050.50000   -0.01156
2051.00000   -0.00800
2051.50000   -0.00514
2052.00000   -0.00314
2052.50000   -0.00216
2053.00000   -0.00227
2053.50000   -0.00354
2054.00000   -0.00595
2054.50000   -0.00944
2055.00000   -0.01389
2055.50000   -0.01913
2056.00000   -0.02496
2056.50000   -0.03113
2057.00000   -0.03737
2057.50000   -0.04341
2058.00000   -0.04896
2058.50000   -0.05376
2059.00000   -0.05758
2059.50000   -0.06021
2060.00000   -0.06149
2060.50000   -0.06132
2061.00000   -0.05964
2061.50000   -0.05643
2062.00000   -0.05176
2062.50000   -0.04570
2063.00000   -0.03841
2063.50000   -0.03004
2064.00000   -0.02080
2064.50000   -0.01088
2065.00000   -0.00053
2065.50000    0.01005
2066.00000    0.02065
2066.50000    0.03107
2067.00000    0.04112
2067.50000    0.05066
2068.00000    0.05955
2068.50000    0.06768
2069.00000    0.07497
2069.50000    0.08136
2070.00000    0.08679
2070.50000    0.09125
2071.00000    0.09472
2071.50000    0.09718
2072.00000    0.09863
2072.50000    0.09908
2073.00000    0.09855
2073.50000    0.09704
2074.00000    0.09458
2074.50000    0.09119
2075.00000    0.08693
2075.50000    0.08184
2076.00000    0.07600
2076.50000    0.06950
2077.00000    0.06245
2077.50000    0.05497
2078.00000    0.04721
2078.50000    0.03934
2079.00000    0.03152
2079.50000    0.02395
2080.00000    0.01679
2080.50000    0.01022
2081.00000    0.00441
2081.50000   -0.00053
2082.00000   -0.00448
2082.50000   -0.00739
2083.00000   -0.00924
2083.50000   -0.01005
2084.00000   -0.00991
2084.50000   -0.00894
2085.00000   -0.00732
2085.50000   -0.00526
2086.00000   -0.00300
2086.50000   -0.00082
2087.00000    0.00101
2087.50000    0.00220
2088.00000    0.00249
2088.50000    0.00165
2089.00000   -0.00053
2089.50000   -0.00420
2090.00000   -0.00945
2090.50000   -0.01630
2091.00000   -0.02473
2091.50000   -0.03461
2092.00000   -0.04577
2092.50000   -0.05798
2093.00000   -0.07094
2093.50000   -0.08430
2094.00000   -0.09770
2094.50000   -0.11075
2095.00000   -0.12305
2095.50000   -0.13422
2096.00000   -0.14389
2096.50000   -0.15173
2097.00000   -0.15748
2097.50000   -0.16090
2098.00000   -0.16184
2098.50000   -0.16023
2099.00000   -0.15604
2099.50000   -0.14932
2100.00000   -0.14021
2100.50000   -0.12887
2101.00000   -0.11555
2101.50000   -0.10051
2102.00000   -0.08407
2102.50000   -0.06654
2103.00000   -0.04827
2103.50000   -0.02959
2104.00000   -0.01084
2104.50000    0.00770
2105.00000    0.02572
2105.50000    0.04299
2106.00000    0.05929
2106.50000    0.07444
2107.00000    0.08830
2107.50000    0.10077
2108.00000    0.11176
2108.50000    0.12124
2109.00000    0.12920
2109.50000    0.13564
2110.00000    0.14060
2110.50000    0.14412
2111.00000    0.14627
2111.50000    0.14711
2112.00000    0.14673
2112.50000    0.14521
2113.00000    0.14265
2113.50000    0.13915
2114.00000    0.13482
2114.50000    0.12977
2115.00000    0.12413
2115.50000    0.11799
2116.00000    0.11150
2116.50000    0.10478
2117.00000    0.09794
2117.50000    0.09111
2118.00000    0.08439
2118.50000    0.07789
2119.00000    0.07169
2119.50000    0.06588
2120.00000    0.06050
2120.50000    0.05559
2121.00000    0.05117
2121.50000    0.04723
2122.00000    0.04375
2122.50000    0.04067
2123.00000    0.03792
2123.50000    0.03543
2124.00000    0.03310
2124.50000    0.03082
2125.00000    0.02850
2125.50000    0.02602
2126.00000    0.02329
2126.50000    0.02022
2127.00000    0.01674
2127.50000    0.01280
2128.00000    0.00837
2128.50000    0.00342
2129.00000   -0.00202
2129.50000   -0.00792
2130.00000   -0.01423
2130.50000   -0.02088
2131.00000   -0.02779
2131.50000   -0.03485
2132.00000   -0.04199
2132.50000   -0.04909
2133.00000   -0.05608
2133.50000   -0.06287
2134.00000   -0.06939
2134.50000   -0.07559
2135.00000   -0.08144
2135.50000   -0.08690
2136.00000   -0.09198
2136.50000   -0.09667
2137.00000   -0.10099
2137.50000   -0.10495
2138.00000   -0.10856
2138.50000   -0.11183
2139.00000   -0.11473
2139.50000   -0.11725
2140.00000   -0.11934
2140.50000   -0.12093
2141.00000   -0.12193
2141.50000   -0.12226
2142.00000   -0.12178
2142.50000   -0.12038
2143.00000   -0.11794
2143.50000   -0.11435
2144.00000   -0.10952
2144.50000   -0.10338
2145.00000   -0.09592
2145.50000   -0.08714
2146.00000   -0.07711
2146.50000   -0.06594
2147.00000   -0.05377
2147.50000   -0.04082
2148.00000   -0.02730
2148.50000   -0.01349
2149.00000    0.00034
2149.50000    0.01390
2150.00000    0.02693
2150.50000    0.03916
2151.00000    0.05039
2151.50000    0.06043
2152.00000    0.06915
2152.50000    0.07649
2153.00000    0.08244
2153.50000    0.08702
2154.00000    0.09033
2154.50000    0.09251
2155.00000    0.09371
2155.50000    0.09413
2156.00000    0.09397
2156.50000    0.09340
2157.00000    0.09263
2157.50000    0.09179
2158.00000    0.09101
2158.50000    0.09037
2159.00000    0.08992
2159.50000    0.08966
2160.00000    0.08954
2160.50000    0.08949
2161.00000    0.08942
2161.50000    0.08921
2162.00000    0.08874
2162.50000    0.08787
2163.00000    0.08649
2163.50000    0.08450
2164.00000    0.08181
2164.50000    0.07837
2165.00000    0.07416
2165.50000    0.06917
2166.00000    0.06343
2166.50000    0.05701
2167.00000    0.04996
2167.50000    0.04239
2168.00000    0.03439
2168.50000    0.02610
2169.00000    0.01761
2169.50000    0.00906
2170.00000    0.00057
2170.50000   -0.00774
2171.00000   -0.01575
2171.50000   -0.02334
2172.00000   -0.03040
2172.50000   -0.03682
2173.00000   -0.04247
2173.50000   -0.04727
2174.00000   -0.05111
2174.50000   -0.05391
2175.00000   -0.05557
2175.50000   -0.05606
2176.00000   -0.05534
2176.50000   -0.05339
2177.00000   -0.05024
2177.50000   -0.04595
2178.00000   -0.04061
2178.50000   -0.03436
2179.00000   -0.02738
2179.50000   -0.01985
2180.00000   -0.01201
2180.50000   -0.00412
2181.00000    0.00357
2181.50000    0.01079
2182.00000    0.01728
2182.50000    0.02281
2183.00000    0.02715
2183.50000    0.03014
2184.00000    0.03165
2184.50000    0.03158
2185.00000    0.02990
2185.50000    0.02663
2186.00000    0.02183
2186.50000    0.01561
2187.00000    0.00812
2187.50000   -0.00047
2188.00000   -0.00995
2188.50000   -0.02010
2189.00000   -0.03070
2189.50000   -0.04153
2190.00000   -0.05237
2190.50000   -0.06302
2191.00000   -0.07331
2191.50000   -0.08307
2192.00000   -0.09217
2192.50000   -0.10048
2193.00000   -0.10790
2193.50000   -0.11437
2194.00000   -0.11981
2194.50000   -0.12417
2195.00000   -0.12741
2195.50000   -0.12949
2196.00000   -0.13037
2196.50000   -0.13002
2197.00000   -0.12842
2197.50000   -0.12553
2198.00000   -0.12134
2198.50000   -0.11584
2199.00000   -0.10903
2199.50000   -0.10093
2200.00000   -0.09158
2200.50000   -0.08104
2201.00000   -0.06940
2201.50000   -0.05677
2202.00000   -0.04329
2202.50000   -0.02915
2203.00000   -0.01453
2203.50000    0.00033
2204.00000    0.01520
2204.50000    0.02981
2205.00000    0.04392
2205.50000    0.05725
2206.00000    0.06956
2206.50000    0.08062
2207.00000    0.09021
2207.50000    0.09816
2208.00000    0.10434
2208.50000    0.10865
2209.00000    0.11107
2209.50000    0.11158
2210.00000    0.11025
2210.50000    0.10719
2211.00000    0.10254
2211.50000    0.09649
2212.00000    0.08926
2212.50000    0.08110
2213.00000    0.07226
2213.50000    0.06301
2214.00000    0.05360
2214.50000    0.04429
2215.00000    0.03530
2215.50000    0.02683
2216.00000    0.01907
2216.50000    0.01215
2217.00000    0.00616
2217.50000    0.00118
2218.00000   -0.00277
2218.50000   -0.00569
2219.00000   -0.00761
2219.50000   -0.00859
2220.00000   -0.00870
2220.50000   -0.00805
2221.00000   -0.00672
2221.50000   -0.00484
2222.00000   -0.00250
2222.50000    0.00018
2223.00000    0.00310
2223.50000    0.00615
2224.00000    0.00925
2224.50000    0.01230
2225.00000    0.01523
2225.50000    0.01796
2226.00000    0.02042
2226.50000    0.02256
2227.00000    0.02432
2227.50000    0.02567
2228.00000    0.02657
2228.50000    0.02701
2229.00000    0.02697
2229.50000    0.02646
2230.00000    0.02551
2230.50000    0.02416
2231.00000    0.02245
2231.50000    0.02045
2232.00000    0.01825
2232.50000    0.01591
2233.00000    0.01355
2233.50000    0.01123
2234.00000    0.00906
2234.50000    0.00711
2235.00000    0.00542
2235.50000    0.00405
2236.00000    0.00300
2236.50000    0.00226
2237.00000    0.00180
2237.50000    0.00155
2238.00000    0.00140
2238.50000    0.00125
2239.00000    0.00096
2239.50000    0.00040
2240.00000   -0.00060
2240.50000   -0.00216
2241.00000   -0.00442
2241.50000   -0.00748
2242.00000   -0.01142
2242.50000   -0.01630
2243.00000   -0.02211
2243.50000   -0.02883
2244.00000   -0.03638
2244.50000   -0.04463
2245.00000   -0.05344
2245.50000   -0.06261
2246.00000   -0.07192
2246.50000   -0.08113
2247.00000   -0.08999
2247.50000   -0.09825
2248.00000   -0.10563
2248.50000   -0.11192
2249.00000   -0.11688
2249.50000   -0.12032
2250.00000   -0.12209
2250.50000   -0.12207
2251.00000   -0.12020
2251.50000   -0.11643
2252.00000   -0.11079
2252.50000   -0.10335
2253.00000   -0.09420
2253.50000   -0.08352
2254.00000   -0.07147
2254.50000   -0.05827
2255.00000   -0.04418
2255.50000   -0.02944
2256.00000   -0.01432
2256.50000    0.00089
2257.00000    0.01593
2257.50000    0.03055
2258.00000    0.04451
2258.50000    0.05759
2259.00000    0.06960
2259.50000    0.08041
2260.00000    0.08990
2260.50000    0.09798
2261.00000    0.10462
2261.50000    0.10982
2262.00000    0.11361
2262.50000    0.11604
2263.00000    0.11718
2263.50000    0.11713
2264.00000    0.11601
2264.50000    0.11390
2265.00000    0.11093
2265.50000    0.10720
2266.00000    0.10279
2266.50000    0.09778
2267.00000    0.09224
2267.50000    0.08623
2268.00000    0.07978
2268.50000    0.07293
2269.00000    0.06570
2269.50000    0.05814
2270.00000    0.05026
2270.50000    0.04211
2271.00000    0.03376
2271.50000    0.02526
2272.00000    0.01671
2272.50000    0.00821
2273.00000   -0.00012
2273.50000   -0.00815
2274.00000   -0.01573
2274.50000   -0.02274
2275.00000   -0.02903
2275.50000   -0.03448
2276.00000   -0.03898
2276.50000   -0.04245
2277.00000   -0.04485
2277.50000   -0.04616
2278.00000   -0.04640
2278.50000   -0.04563
2279.00000   -0.04396
2279.50000   -0.04151
2280.00000   -0.03846
2280.50000   -0.03498
2281.00000   -0.03130
2281.50000   -0.02763
2282.00000   -0.02418
2282.50000   -0.02116
2283.00000   -0.01878
2283.50000   -0.01719
2284.00000   -0.01652
2284.50000   -0.01689
2285.00000   -0.01834
2285.50000   -0.02088
2286.00000   -0.02448
2286.50000   -0.02907
2287.00000   -0.03451
2287.50000   -0.04065
2288.00000   -0.04730
2288.50000   -0.05425
2289.00000   -0.06127
2289.50000   -0.06812
2290.00000   -0.07456
2290.50000   -0.08038
2291.00000   -0.08537
2291.50000   -0.08934
2292.00000   -0.09216
2292.50000   -0.09371
2293.00000   -0.09392
2293.50000   -0.09276
2294.00000   -0.09025
2294.50000   -0.08642
2295.00000   -0.08137
2295.50000   -0.07520
2296.00000   -0.06804
2296.50000   -0.06004
2297.00000   -0.05135
2297.50000   -0.04212
2298.00000   -0.03251
2298.50000   -0.02265
2299.00000   -0.01267
2299.50000   -0.00267
2300.00000    0.00724
2300.50000    0.01701
2301.00000    0.02658
2301.50000    0.03589
2302.00000    0.04491
2302.50000    0.05363
2303.00000    0.06201
2303.50000    0.07003
2304.00000    0.07767
2304.50000    0.08490
2305.00000    0.09169
2305.50000    0.09802
2306.00000    0.10385
2306.50000    0.10916
2307.00000    0.11391
2307.50000    0.11809
2308.00000    0.12170
2308.50000    0.12475
2309.00000    0.12723
2309.50000    0.12920
2310.00000    0.13067
2310.50000    0.13172
2311.00000    0.13237
2311.50000    0.13270
2312.00000    0.13274
2312.50000    0.13253
2313.00000    0.13211
2313.50000    0.13148
2314.00000    0.13063
2314.50000    0.12954
2315.00000    0.12816
2315.50000    0.12643
2316.00000    0.12429
2316.50000    0.12165
2317.00000    0.11844
2317.50000    0.11460
2318.00000    0.11007
2318.50000    0.10481
2319.00000    0.09882
2319.50000    0.09210
2320.00000    0.08471
2320.50000    0.07670
2321.00000    0.06816
2321.50000    0.05921
2322.00000    0.04997
2322.50000    0.04055
2323.00000    0.03107
2323.50000    0.02165
2324.00000    0.01236
2324.50000    0.00328
2325.00000   -0.00556
2325.50000   -0.01416
2326.00000   -0.02253
2326.50000   -0.03073
2327.00000   -0.03882
2327.50000   -0.04689
2328.00000   -0.05502
2328.50000   -0.06330
2329.00000   -0.07180
2329.50000   -0.08057
2330.00000   -0.08964
2330.50000   -0.09899
2331.00000   -0.10857
2331.50000   -0.11831
2332.00000   -0.12808
2332.50000   -0.13773
2333.00000   -0.14707
2333.50000   -0.15591
2334.00000   -0.16404
2334.50000   -0.17125
2335.00000   -0.17734
2335.50000   -0.18213
2336.00000   -0.18547
2336.50000   -0.18725
2337.00000   -0.18738
2337.50000   -0.18583
2338.00000   -0.18261
2338.50000   -0.17777
2339.00000   -0.17140
2339.50000   -0.16360
2340.00000   -0.15453
2340.50000   -0.14433
2341.00000   -0.13319
2341.50000   -0.12126
2342.00000   -0.10871
2342.50000   -0.09568
2343.00000   -0.08230
2343.50000   -0.06866
2344.00000   -0.05486
2344.50000   -0.04092
2345.00000   -0.02688
2345.50000   -0.01273
2346.00000    0.00155
2346.50000    0.01600
2347.00000    0.03068
2347.50000    0.04563
2348.00000    0.06092
2348.50000    0.07659
2349.00000    0.09268
2349.50000    0.10921
2350.00000    0.12618
2350.50000    0.14355
2351.00000    0.16127
2351.50000    0.17925
2352.00000    0.19738
2352.50000    0.21550
2353.00000    0.23346
2353.50000    0.25104
2354.00000    0.26802
2354.50000    0.28417
2355.00000    0.29922
2355.50000    0.31293
2356.00000    0.32503
2356.50000    0.33526
2357.00000    0.34338
2357.50000    0.34916
2358.00000    0.35240
2358.50000    0.35293
2359.00000    0.35063
2359.50000    0.34541
2360.00000    0.33722
2360.50000    0.32609
2361.00000    0.31207
2361.50000    0.29530
2362.00000    0.27593
2362.50000    0.25421
2363.00000    0.23039
2363.50000    0.20481
2364.00000    0.17780
2364.50000    0.14976
2365.00000    0.12109
2365.50000    0.09220
2366.00000    0.06350
2366.50000    0.03542
2367.00000    0.00834
2367.50000   -0.01737
2368.00000   -0.04136
2368.50000   -0.06332
2369.00000   -0.08301
2369.50000   -0.10021
2370.00000   -0.11476
2370.50000   -0.12655
2371.00000   -0.13552
2371.50000   -0.14169
2372.00000   -0.14508
2372.50000   -0.14581
2373.00000   -0.14401
2373.50000   -0.13986
2374.00000   -0.13357
2374.50000   -0.12539
2375.00000   -0.11557
2375.50000   -0.10440
2376.00000   -0.09217
2376.50000   -0.07914
2377.00000   -0.06562
2377.50000   -0.05188
2378.00000   -0.03816
2378.50000   -0.02472
2379.00000   -0.01175
2379.50000    0.00055
2380.00000    0.01203
2380.50000    0.02256
2381.00000    0.03205
2381.50000    0.04044
2382.00000    0.04769
2382.50000    0.05378
2383.00000    0.05875
2383.50000    0.06262
2384.00000    0.06546
2384.50000    0.06734
2385.00000    0.06834
2385.50000    0.06856
2386.00000    0.06810
2386.50000    0.06708
2387.00000    0.06560
2387.50000    0.06379
2388.00000    0.06177
2388.50000    0.05967
2389.00000    0.05759
2389.50000    0.05567
2390.00000    0.05403
2390.50000    0.05279
2391.00000    0.05204
2391.50000    0.05188
2392.00000    0.05241
2392.50000    0.05368
2393.00000    0.05574
2393.50000    0.05861
2394.00000    0.06229
2394.50000    0.06674
2395.00000    0.07189
2395.50000    0.07765
2396.00000    0.08390
2396.50000    0.09048
2397.00000    0.09721
2397.50000    0.10392
2398.00000    0.11040
2398.50000    0.11645
2399.00000    0.12186
2399.50000    0.12645
2400.00000    0.13002
2400.50000    0.13243
2401.00000    0.13353
2401.50000    0.13323
2402.00000    0.13145
2402.50000    0.12813
2403.00000    0.12326
2403.50000    0.11686
2404.00000    0.10894
2404.50000    0.09957
2405.00000    0.08881
2405.50000    0.07676
2406.00000    0.06351
2406.50000    0.04917
2407.00000    0.03387
2407.50000    0.01774
2408.00000    0.00092
2408.50000   -0.01645
2409.00000   -0.03419
2409.50000   -0.05213
2410.00000   -0.07008
2410.50000   -0.08784
2411.00000   -0.10519
2411.50000   -0.12191
2412.00000   -0.13776
2412.50000   -0.15251
2413.00000   -0.16593
2413.50000   -0.17780
2414.00000   -0.18792
2414.50000   -0.19611
2415.00000   -0.20223
2415.50000   -0.20617
2416.00000   -0.20787
2416.50000   -0.20732
2417.00000   -0.20454
2417.50000   -0.19962
2418.00000   -0.19268
2418.50000   -0.18388
2419.00000   -0.17343
2419.50000   -0.16155
2420.00000   -0.14846
2420.50000   -0.13442
2421.00000   -0.11968
2421.50000   -0.10445
2422.00000   -0.08895
2422.50000   -0.07338
2423.00000   -0.05790
2423.50000   -0.04265
2424.00000   -0.02772
2424.50000   -0.01322
2425.00000    0.00081
2425.50000    0.01433
2426.00000    0.02729
2426.50000    0.03967
2427.00000    0.05146
2427.50000    0.06261
2428.00000    0.07311
2428.50000    0.08291
2429.00000    0.09196
2429.50000    0.10021
2430.00000    0.10760
2430.50000    0.11407
2431.00000    0.11958
2431.50000    0.12408
2432.00000    0.12754
2432.50000    0.12994
2433.00000    0.13128
2433.50000    0.13160
2434.00000    0.13093
2434.50000    0.12933
2435.00000    0.12687
2435.50000    0.12363
2436.00000    0.11968
2436.50000    0.11510
2437.00000    0.10994
2437.50000    0.10427
2438.00000    0.09809
2438.50000    0.09141
2439.00000    0.08421
2439.50000    0.07645
2440.00000    0.06805
2440.50000    0.05893
2441.00000    0.04901
2441.50000    0.03820
2442.00000    0.02641
2442.50000    0.01360
2443.00000   -0.00028
2443.50000   -0.01523
2444.00000   -0.03118
2444.50000   -0.04805
2445.00000   -0.06568
2445.50000   -0.08388
2446.00000   -0.10238
2446.50000   -0.12088
2447.00000   -0.13905
2447.50000   -0.15650
2448.00000   -0.17283
2448.50000   -0.18765
2449.00000   -0.20053
2449.50000   -0.21110
2450.00000   -0.21898
2450.50000   -0.22387
2451.00000   -0.22547
2451.50000   -0.22359
2452.00000   -0.21808
2452.50000   -0.20888
2453.00000   -0.19600
2453.50000   -0.17953
2454.00000   -0.15966
2454.50000   -0.13661
2455.00000   -0.11071
2455.50000   -0.08233
2456.00000   -0.05190
2456.50000   -0.01989
2457.00000    0.01322
2457.50000    0.04692
2458.00000    0.08069
2458.50000    0.11405
2459.00000    0.14653
2459.50000    0.17768
2460.00000    0.20712
2460.50000    0.23451
2461.00000    0.25957
2461.50000    0.28206
2462.00000    0.30183
2462.50000    0.31877
2463.00000    0.33283
2463.50000    0.34400
2464.00000    0.35235
2464.50000    0.35794
2465.00000    0.36091
2465.50000    0.36138
2466.00000    0.35953
2466.50000    0.35552
2467.00000    0.34955
2467.50000    0.34180
2468.00000    0.33247
2468.50000    0.32175
2469.00000    0.30986
2469.50000    0.29697
2470.00000    0.28330
2470.50000    0.26904
2471.00000    0.25438
2471.50000    0.23953
2472.00000    0.22468
2472.50000    0.21001
2473.00000    0.19570
2473.50000    0.18193
2474.00000    0.16885
2474.50000    0.15659
2475.00000    0.14528
2475.50000    0.13501
2476.00000    0.12585
2476.50000    0.11784
2477.00000    0.11101
2477.50000    0.10535
2478.00000    0.10081
2478.50000    0.09734
2479.00000    0.09484
2479.50000    0.09321
2480.00000    0.09231
2480.50000    0.09200
2481.00000    0.09210
2481.50000    0.09245
2482.00000    0.09286
2482.50000    0.09312
2483.00000    0.09304
2483.50000    0.09243
2484.00000    0.09109
2484.50000    0.08883
2485.00000    0.08550
2485.50000    0.08093
2486.00000    0.07501
2486.50000    0.06765
2487.00000    0.05878
2487.50000    0.04839
2488.00000    0.03650
2488.50000    0.02320
2489.00000    0.00861
2489.50000   -0.00711
2490.00000   -0.02375
2490.50000   -0.04105
2491.00000   -0.05872
2491.50000   -0.07647
2492.00000   -0.09395
2492.50000   -0.11084
2493.00000   -0.12682
2493.50000   -0.14156
2494.00000   -0.15478
2494.50000   -0.16623
2495.00000   -0.17569
2495.50000   -0.18299
2496.00000   -0.18803
2496.50000   -0.19073
2497.00000   -0.19108
2497.50000   -0.18914
2498.00000   -0.18499
2498.50000   -0.17877
2499.00000   -0.17065
2499.50000   -0.16083
2500.00000   -0.14954
2500.50000   -0.13702
2501.00000   -0.12352
2501.50000   -0.10931
2502.00000   -0.09462
2502.50000   -0.07969
2503.00000   -0.06475
2503.50000   -0.05000
2504.00000   -0.03562
2504.50000   -0.02174
2505.00000   -0.00851
2505.50000    0.00401
2506.00000    0.01574
2506.50000    0.02665
2507.00000    0.03674
2507.50000    0.04602
2508.00000    0.05455
2508.50000    0.06237
2509.00000    0.06956
2509.50000    0.07619
2510.00000    0.08234
2510.50000    0.08809
2511.00000    0.09352
2511.50000    0.09868
2512.00000    0.10362
2512.50000    0.10838
2513.00000    0.11297
2513.50000    0.11738
2514.00000    0.12160
2514.50000    0.12560
2515.00000    0.12931
2515.50000    0.13269
2516.00000    0.13566
2516.50000    0.13816
2517.00000    0.14009
2517.50000    0.14138
2518.00000    0.14197
2518.50000    0.14176
2519.00000    0.14071
2519.50000    0.13873
2520.00000    0.13579
2520.50000    0.13184
2521.00000    0.12684
2521.50000    0.12076
2522.00000    0.11360
2522.50000    0.10535
2523.00000    0.09604
2523.50000    0.08570
2524.00000    0.07441
2524.50000    0.06224
2525.00000    0.04931
2525.50000    0.03578
2526.00000    0.02181
2526.50000    0.00762
2527.00000   -0.00657
2527.50000   -0.02047
2528.00000   -0.03382
2528.50000   -0.04632
2529.00000   -0.05767
2529.50000   -0.06756
2530.00000   -0.07573
2530.50000   -0.08191
2531.00000   -0.08589
2531.50000   -0.08750
2532.00000   -0.08663
2532.50000   -0.08323
2533.00000   -0.07733
2533.50000   -0.06904
2534.00000   -0.05853
2534.50000   -0.04604
2535.00000   -0.03191
2535.50000   -0.01651
2536.00000   -0.00026
2536.50000    0.01637
2537.00000    0.03290
2537.50000    0.04885
2538.00000    0.06373
2538.50000    0.07711
2539.00000    0.08858
2539.50000    0.09780
2540.00000    0.10448
2540.50000    0.10842
2541.00000    0.10952
2541.50000    0.10772
2542.00000    0.10309
2542.50000    0.09573
2543.00000    0.08585
2543.50000    0.07370
2544.00000    0.05957
2544.50000    0.04382
2545.00000    0.02678
2545.50000    0.00882
2546.00000   -0.00970
2546.50000   -0.02844
2547.00000   -0.04709
2547.50000   -0.06538
2548.00000   -0.08306
2548.50000   -0.09993
2549.00000   -0.11583
2549.50000   -0.13063
2550.00000   -0.14425
2550.50000   -0.15659
2551.00000   -0.16762
2551.50000   -0.17729
2552.00000   -0.18556
2552.50000   -0.19239
2553.00000   -0.19776
2553.50000   -0.20162
2554.00000   -0.20392
2554.50000   -0.20462
2555.00000   -0.20368
2555.50000   -0.20108
2556.00000   -0.19679
2556.50000   -0.19083
2557.00000   -0.18321
2557.50000   -0.17401
2558.00000   -0.16331
2558.50000   -0.15125
2559.00000   -0.13800
2559.50000   -0.12374
2560.00000   -0.10871
2560.50000   -0.09314
2561.00000   -0.07728
2561.50000   -0.06142
2562.00000   -0.04578
2562.50000   -0.03063
2563.00000   -0.01618
2563.50000   -0.00262
2564.00000    0.00990
2564.50000    0.02125
2565.00000    0.03136
2565.50000    0.04020
2566.00000    0.04776
2566.50000    0.05408
2567.00000    0.05923
2567.50000    0.06331
2568.00000    0.06642
2568.50000    0.06868
2569.00000    0.07022
2569.50000    0.07116
2570.00000    0.07159
2570.50000    0.07163
2571.00000    0.07133
2571.50000    0.07076
2572.00000    0.06994
2572.50000    0.06888
2573.00000    0.06757
2573.50000    0.06596
2574.00000    0.06401
2574.50000    0.06166
2575.00000    0.05884
2575.50000    0.05549
2576.00000    0.05156
2576.50000    0.04700
2577.00000    0.04180
2577.50000    0.03595
2578.00000    0.02949
2578.50000    0.02249
2579.00000    0.01503
2579.50000    0.00724
2580.00000   -0.00072
2580.50000   -0.00868
2581.00000   -0.01643
2581.50000   -0.02378
2582.00000   -0.03053
2582.50000   -0.03645
2583.00000   -0.04139
2583.50000   -0.04517
2584.00000   -0.04767
2584.50000   -0.04879
2585.00000   -0.04850
2585.50000   -0.04678
2586.00000   -0.04368
2586.50000   -0.03929
2587.00000   -0.03373
2587.50000   -0.02715
2588.00000   -0.01974
2588.50000   -0.01170
2589.00000   -0.00324
2589.50000    0.00544
2590.00000    0.01413
2590.50000    0.02264
2591.00000    0.03079
2591.50000    0.03844
2592.00000    0.04546
2592.50000    0.05175
2593.00000    0.05723
2593.50000    0.06185
2594.00000    0.06559
2594.50000    0.06844
2595.00000    0.07040
2595.50000    0.07149
2596.00000    0.07176
2596.50000    0.07126
2597.00000    0.07004
2597.50000    0.06818
2598.00000    0.06577
2598.50000    0.06289
2599.00000    0.05965
2599.50000    0.05618
2600.00000    0.05258
2600.50000    0.04899
2601.00000    0.04552
2601.50000    0.04232
2602.00000    0.03948
2602.50000    0.03711
2603.00000    0.03529
2603.50000    0.03407
2604.00000    0.03347
2604.50000    0.03349
2605.00000    0.03408
2605.50000    0.03516
2606.00000    0.03663
2606.50000    0.03834
2607.00000    0.04013
2607.50000    0.04182
2608.00000    0.04323
2608.50000    0.04417
2609.00000    0.04446
2609.50000    0.04394
2610.00000    0.04248
2610.50000    0.03998
2611.00000    0.03638
2611.50000    0.03165
2612.00000    0.02581
2612.50000    0.01891
2613.00000    0.01106
2613.50000    0.00240
2614.00000   -0.00692
2614.50000   -0.01670
2615.00000   -0.02673
2615.50000   -0.03680
2616.00000   -0.04670
2616.50000   -0.05620
2617.00000   -0.06510
2617.50000   -0.07324
2618.00000   -0.08044
2618.50000   -0.08660
2619.00000   -0.09161
2619.50000   -0.09542
2620.00000   -0.09802
2620.50000   -0.09943
2621.00000   -0.09971
2621.50000   -0.09895
2622.00000   -0.09727
2622.50000   -0.09481
2623.00000   -0.09172
2623.50000   -0.08817
2624.00000   -0.08430
2624.50000   -0.08028
2625.00000   -0.07622
2625.50000   -0.07221
2626.00000   -0.06833
2626.50000   -0.06459
2627.00000   -0.06097
2627.50000   -0.05742
2628.00000   -0.05382
2628.50000   -0.05004
2629.00000   -0.04591
2629.50000   -0.04123
2630.00000   -0.03581
2630.50000   -0.02943
2631.00000   -0.02191
2631.50000   -0.01306
2632.00000   -0.00273
2632.50000    0.00919
2633.00000    0.02277
2633.50000    0.03805
2634.00000    0.05503
2634.50000    0.07365
2635.00000    0.09386
2635.50000    0.11553
2636.00000    0.13856
2636.50000    0.16281
2637.00000    0.18816
2637.50000    0.21450
2638.00000    0.24171
2638.50000    0.26974
2639.00000    0.29851
2639.50000    0.32802
2640.00000    0.35827
2640.50000    0.38929
2641.00000    0.42112
2641.50000    0.45386
2642.00000    0.48758
2642.50000    0.52239
2643.00000    0.55839
2643.50000    0.59570
2644.00000    0.63442
2644.50000    0.67467
2645.00000    0.71659
2645.50000    0.76028
2646.00000    0.80589
2646.50000    0.85355
2647.00000    0.90344
2647.50000    0.95570
2648.00000    1.01053
2648.50000    1.06812
2649.00000    1.12867
2649.50000    1.19238
2650.00000    1.25947
2650.50000    1.33014
2651.00000    1.40458
2651.50000    1.48294
2652.00000    1.56539
2652.50000    1.65202
2653.00000    1.74293
2653.50000    1.83815
2654.00000    1.93772
2654.50000    2.04161
2655.00000    2.14980
2655.50000    2.26223
2656.00000    2.37884
2656.50000    2.49957
2657.00000    2.62436
2657.50000    2.75316
2658.00000    2.88593
2658.50000    3.02266
2659.00000    3.16334
2659.50000    3.30800
2660.00000    3.45666
2660.50000    3.60934
2661.00000    3.76607
2661.50000    3.92685
2662.00000    4.09167
2662.50000    4.26047
2663.00000    4.43318
2663.50000    4.60965
2664.00000    4.78970
2664.50000    4.97310
2665.00000    5.15954
2665.50000    5.34870
2666.00000    5.54020
2666.50000    5.73363
2667.00000    5.92854
2667.50000    6.12447
2668.00000    6.32095
2668.50000    6.51750
2669.00000    6.71363
2669.50000    6.90887
2670.00000    7.10274
2670.50000    7.29476
2671.00000    7.48445
2671.50000    7.67133
2672.00000    7.85490
2672.50000    8.03468
2673.00000    8.21012
2673.50000    8.38069
2674.00000    8.54583
2674.50000    8.70496
2675.00000    8.85748
2675.50000    9.00278
2676.00000    9.14025
2676.50000    9.26929
2677.00000    9.38933
2677.50000    9.49979
2678.00000    9.60019
2678.50000    9.69006
2679.00000    9.76899
2679.50000    9.83668
2680.00000    9.89285
2680.50000    9.93734
2681.00000    9.97003
2681.50000    9.99091
2682.00000   10.00000
2682.50000    9.99741
2683.00000    9.98329
2683.50000    9.95784
2684.00000    9.92129
2684.50000    9.87390
2685.00000    9.81596
2685.50000    9.74777
2686.00000    9.66965
2686.50000    9.58191
2687.00000    9.48488
2687.50000    9.37889
2688.00000    9.26428
2688.50000    9.14139
2689.00000    9.01058
2689.50000    8.87220
2690.00000    8.72663
2690.50000    8.57425
2691.00000    8.41546
2691.50000    8.25066
2692.00000    8.08029
2692.50000    7.90479
2693.00000    7.72462
2693.50000    7.54024
2694.00000    7.35215
2694.50000    7.16086
2695.00000    6.96690
2695.50000    6.77080
2696.00000    6.57314
2696.50000    6.37451
2697.00000    6.17550
2697.50000    5.97674
2698.00000    5.77887
2698.50000    5.58253
2699.00000    5.38838
2699.50000    5.19707
2700.00000    5.00922
2700.50000    4.82546
2701.00000    4.64634
2701.50000    4.47240
2702.00000    4.30410
2702.50000    4.14181
2703.00000    3.98583
2703.50000    3.83637
2704.00000    3.69352
2704.50000    3.55729
2705.00000    3.42756
2705.50000    3.30414
2706.00000    3.18672
2706.50000    3.07494
2707.00000    2.96835
2707.50000    2.86648
2708.00000    2.76880
2708.50000    2.67481
2709.00000    2.58400
2709.50000    2.49588
2710.00000    2.41004
2710.50000    2.32610
2711.00000    2.24377
2711.50000    2.16282
2712.00000    2.08310
2712.50000    2.00455
2713.00000    1.92717
2713.50000    1.85103
2714.00000    1.77623
2714.50000    1.70294
2715.00000    1.63133
2715.50000    1.56161
2716.00000    1.49395
2716.50000    1.42853
2717.00000    1.36552
2717.50000    1.30502
2718.00000    1.24712
2718.50000    1.19186
2719.00000    1.13924
2719.50000    1.08922
2720.00000    1.04173
2720.50000    0.99664
2721.00000    0.95383
2721.50000    0.91314
2722.00000    0.87440
2722.50000    0.83744
2723.00000    0.80209
2723.50000    0.76819
2724.00000    0.73558
2724.50000    0.70412
2725.00000    0.67369
2725.50000    0.64417
2726.00000    0.61549
2726.50000    0.58755
2727.00000    0.56032
2727.50000    0.53372
2728.00000    0.50774
2728.50000    0.48234
2729.00000    0.45749
2729.50000    0.43317
2730.00000    0.40937
2730.50000    0.38605
2731.00000    0.36319
2731.50000    0.34077
2732.00000    0.31876
2732.50000    0.29712
2733.00000    0.27584
2733.50000    0.25489
2734.00000    0.23426
2734.50000    0.21392
2735.00000    0.19389
2735.50000    0.17417
2736.00000    0.15478
2736.50000    0.13578
2737.00000    0.11720
2737.50000    0.09911
2738.00000    0.08159
2738.50000    0.06472
2739.00000    0.04858
2739.50000    0.03326
2740.00000    0.01883
2740.50000    0.00538
2741.00000   -0.00705
2741.50000   -0.01840
2742.00000   -0.02865
2742.50000   -0.03781
2743.00000   -0.04588
2743.50000   -0.05291
2744.00000   -0.05893
2744.50000   -0.06402
2745.00000   -0.06826
2745.50000   -0.07171
2746.00000   -0.07446
2746.50000   -0.07659
2747.00000   -0.07815
2747.50000   -0.07920
2748.00000   -0.07977
2748.50000   -0.07988
2749.00000   -0.07953
2749.50000   -0.07870
2750.00000   -0.07735
2750.50000   -0.07544
2751.00000   -0.07292
2751.50000   -0.06971
2752.00000   -0.06577
2752.50000   -0.06103
2753.00000   -0.05544
2753.50000   -0.04899
2754.00000   -0.04163
2754.50000   -0.03339
2755.00000   -0.02427
2755.50000   -0.01434
2756.00000   -0.00365
2756.50000    0.00770
2757.00000    0.01959
2757.50000    0.03189
2758.00000    0.04445
2758.50000    0.05708
2759.00000    0.06961
2759.50000    0.08183
2760.00000    0.09355
2760.50000    0.10456
2761.00000    0.11464
2761.50000    0.12361
2762.00000    0.13126
2762.50000    0.13740
2763.00000    0.14187
2763.50000    0.14453
2764.00000    0.14523
2764.50000    0.14388
2765.00000    0.14040
2765.50000    0.13475
2766.00000    0.12691
2766.50000    0.11691
2767.00000    0.10480
2767.50000    0.09068
2768.00000    0.07469
2768.50000    0.05700
2769.00000    0.03782
2769.50000    0.01741
2770.00000   -0.00395
2770.50000   -0.02595
2771.00000   -0.04825
2771.50000   -0.07047
2772.00000   -0.09225
2772.50000   -0.11318
2773.00000   -0.13289
2773.50000   -0.15098
2774.00000   -0.16711
2774.50000   -0.18092
2775.00000   -0.19211
2775.50000   -0.20042
2776.00000   -0.20563
2776.50000   -0.20758
2777.00000   -0.20616
2777.50000   -0.20132
2778.00000   -0.19308
2778.50000   -0.18150
2779.00000   -0.16671
2779.50000   -0.14890
2780.00000   -0.12829
2780.50000   -0.10516
2781.00000   -0.07983
2781.50000   -0.05266
2782.00000   -0.02403
2782.50000    0.00564
2783.00000    0.03591
2783.50000    0.06634
2784.00000    0.09645
2784.50000    0.12576
2785.00000    0.15380
2785.50000    0.18011
2786.00000    0.20423
2786.50000    0.22573
2787.00000    0.24422
2787.50000    0.25936
2788.00000    0.27085
2788.50000    0.27849
2789.00000    0.28212
2789.50000    0.28169
2790.00000    0.27723
2790.50000    0.26887
2791.00000    0.25681
2791.50000    0.24137
2792.00000    0.22293
2792.50000    0.20192
2793.00000    0.17885
2793.50000    0.15424
2794.00000    0.12866
2794.50000    0.10264
2795.00000    0.07672
2795.50000    0.05138
2796.00000    0.02705
2796.50000    0.00412
2797.00000   -0.01710
2797.50000   -0.03640
2798.00000   -0.05361
2798.50000   -0.06865
2799.00000   -0.08150
2799.50000   -0.09217
2800.00000   -0.10074
2800.50000   -0.10732
2801.00000   -0.11201
2801.50000   -0.11492
2802.00000   -0.11616
2802.50000   -0.11584
2803.00000   -0.11400
2803.50000   -0.11070
2804.00000   -0.10596
2804.50000   -0.09977
2805.00000   -0.09212
2805.50000   -0.08296
2806.00000   -0.07227
2806.50000   -0.06002
2807.00000   -0.04619
2807.50000   -0.03080
2808.00000   -0.01387
2808.50000    0.00452
2809.00000    0.02426
2809.50000    0.04522
2810.00000    0.06719
2810.50000    0.08998
2811.00000    0.11333
2811.50000    0.13695
2812.00000    0.16057
2812.50000    0.18386
2813.00000    0.20650
2813.50000    0.22819
2814.00000    0.24862
2814.50000    0.26749
2815.00000    0.28453
2815.50000    0.29951
2816.00000    0.31222
2816.50000    0.32249
2817.00000    0.33019
2817.50000    0.33525
2818.00000    0.33765
2818.50000    0.33740
2819.00000    0.33457
2819.50000    0.32929
2820.00000    0.32171
2820.50000    0.31203
2821.00000    0.30050
2821.50000    0.28736
2822.00000    0.27291
2822.50000    0.25741
2823.00000    0.24115
2823.50000    0.22439
2824.00000    0.20737
2824.50000    0.19030
2825.00000    0.17336
2825.50000    0.15666
2826.00000    0.14029
2826.50000    0.12428
2827.00000    0.10863
2827.50000    0.09331
2828.00000    0.07826
2828.50000    0.06340
2829.00000    0.04866
2829.50000    0.03397
2830.00000    0.01931
2830.50000    0.00464
2831.00000   -0.00999
2831.50000   -0.02453
2832.00000   -0.03885
2832.50000   -0.05282
2833.00000   -0.06625
2833.50000   -0.07893
2834.00000   -0.09064
2834.50000   -0.10116
2835.00000   -0.11028
2835.50000   -0.11783
2836.00000   -0.12366
2836.50000   -0.12769
2837.00000   -0.12987
2837.50000   -0.13023
2838.00000   -0.12887
2838.50000   -0.12590
2839.00000   -0.12153
2839.50000   -0.11597
2840.00000   -0.10948
2840.50000   -0.10231
2841.00000   -0.09472
2841.50000   -0.08696
2842.00000   -0.07925
2842.50000   -0.07177
2843.00000   -0.06465
2843.50000   -0.05801
2844.00000   -0.05188
2844.50000   -0.04629
2845.00000   -0.04121
2845.50000   -0.03658
2846.00000   -0.03234
2846.50000   -0.02841
2847.00000   -0.02470
2847.50000   -0.02115
2848.00000   -0.01769
2848.50000   -0.01429
2849.00000   -0.01092
2849.50000   -0.00758
2850.00000   -0.00429
2850.50000   -0.00109
2851.00000    0.00200
2851.50000    0.00492
2852.00000    0.00764
2852.50000    0.01011
2853.00000    0.01233
2853.50000    0.01429
2854.00000    0.01600
2854.50000    0.01751
2855.00000    0.01886
2855.50000    0.02014
2856.00000    0.02141
2856.50000    0.02279
2857.00000    0.02437
2857.50000    0.02623
2858.00000    0.02846
2858.50000    0.03114
2859.00000    0.03432
2859.50000    0.03805
2860.00000    0.04232
2860.50000    0.04715
2861.00000    0.05249
2861.50000    0.05830
2862.00000    0.06453
2862.50000    0.07109
2863.00000    0.07791
2863.50000    0.08488
2864.00000    0.09193
2864.50000    0.09896
2865.00000    0.10587
2865.50000    0.11259
2866.00000    0.11903
2866.50000    0.12511
2867.00000    0.13073
2867.50000    0.13581
2868.00000    0.14027
2868.50000    0.14399
2869.00000    0.14686
2869.50000    0.14878
2870.00000    0.14961
2870.50000    0.14923
2871.00000    0.14749
2871.50000    0.14429
2872.00000    0.13950
2872.50000    0.13303
2873.00000    0.12481
2873.50000    0.11482
2874.00000    0.10306
2874.50000    0.08961
2875.00000    0.07456
2875.50000    0.05810
2876.00000    0.04045
2876.50000    0.02187
2877.00000    0.00270
2877.50000   -0.01673
2878.00000   -0.03604
2878.50000   -0.05484
2879.00000   -0.07275
2879.50000   -0.08941
2880.00000   -0.10450
2880.50000   -0.11773
2881.00000   -0.12888
2881.50000   -0.13778
2882.00000   -0.14436
2882.50000   -0.14860
2883.00000   -0.15056
2883.50000   -0.15037
2884.00000   -0.14822
2884.50000   -0.14434
2885.00000   -0.13901
2885.50000   -0.13252
2886.00000   -0.12516
2886.50000   -0.11725
2887.00000   -0.10904
2887.50000   -0.10078
2888.00000   -0.09267
2888.50000   -0.08485
2889.00000   -0.07742
2889.50000   -0.07039
2890.00000   -0.06375
2890.50000   -0.05743
2891.00000   -0.05130
2891.50000   -0.04521
2892.00000   -0.03900
2892.50000   -0.03247
2893.00000   -0.02545
2893.50000   -0.01777
2894.00000   -0.00929
2894.50000    0.00009
2895.00000    0.01045
2895.50000    0.02178
2896.00000    0.03407
2896.50000    0.04724
2897.00000    0.06117
2897.50000    0.07574
2898.00000    0.09078
2898.50000    0.10614
2899.00000    0.12168
2899.50000    0.13728
