1200.50000   -0.00260
1201.00000    0.00090
1201.50000    0.00435
1202.00000    0.00770
1202.50000    0.01088
1203.00000    0.01385
1203.50000    0.01656
1204.00000    0.01894
1204.50000    0.02097
1205.00000    0.02259
1205.50000    0.02380
1206.00000    0.02457
1206.50000    0.02490
1207.00000    0.02479
1207.50000    0.02426
1208.00000    0.02332
1208.50000    0.02199
1209.00000    0.02030
1209.50000    0.01825
1210.00000    0.01589
1210.50000    0.01321
1211.00000    0.01024
1211.50000    0.00699
1212.00000    0.00347
1212.50000   -0.00032
1213.00000   -0.00436
1213.50000   -0.00864
1214.00000   -0.01315
1214.50000   -0.01786
1215.00000   -0.02274
1215.50000   -0.02776
1216.00000   -0.03285
1216.50000   -0.03797
1217.00000   -0.04304
1217.50000   -0.04798
1218.00000   -0.05270
1218.50000   -0.05711
1219.00000   -0.06111
1219.50000   -0.06459
1220.00000   -0.06747
1220.50000   -0.06966
1221.00000   -0.07105
1221.50000   -0.07160
1222.00000   -0.07123
1222.50000   -0.06991
1223.00000   -0.06761
1223.50000   -0.06433
1224.00000   -0.06008
1224.50000   -0.05490
1225.00000   -0.04884
1225.50000   -0.04197
1226.00000   -0.03438
1226.50000   -0.02618
1227.00000   -0.01748
1227.50000   -0.00840
1228.00000    0.00092
1228.50000    0.01035
1229.00000    0.01976
1229.50000    0.02900
1230.00000    0.03794
1230.50000    0.04647
1231.00000    0.05446
1231.50000    0.06180
1232.00000    0.06840
1232.50000    0.07416
1233.00000    0.07902
1233.50000    0.08292
1234.00000    0.08579
1234.50000    0.08762
1235.00000    0.08838
1235.50000    0.08806
1236.00000    0.08668
1236.50000    0.08425
1237.00000    0.08080
1237.50000    0.07638
1238.00000    0.07105
1238.50000    0.06488
1239.00000    0.05795
1239.50000    0.05035
1240.00000    0.04220
1240.50000    0.03359
1241.00000    0.02465
1241.50000    0.01551
1242.00000    0.00630
1242.50000   -0.00283
1243.00000   -0.01176
1243.50000   -0.02034
1244.00000   -0.02844
1244.50000   -0.03594
1245.00000   -0.04271
1245.50000   -0.04866
1246.00000   -0.05368
1246.50000   -0.05770
1247.00000   -0.06067
1247.50000   -0.06255
1248.00000   -0.06330
1248.50000   -0.06293
1249.00000   -0.06146
1249.50000   -0.05891
1250.00000   -0.05532
1250.50000   -0.05076
1251.00000   -0.04530
1251.50000   -0.03899
1252.00000   -0.03192
1252.50000   -0.02416
1253.00000   -0.01576
1253.50000   -0.00680
1254.00000    0.00269
1254.50000    0.01264
1255.00000    0.02304
1255.50000    0.03386
1256.00000    0.04509
1256.50000    0.05670
1257.00000    0.06869
1257.50000    0.08105
1258.00000    0.09375
1258.50000    0.10678
1259.00000    0.12007
1259.50000    0.13358
1260.00000    0.14723
1260.50000    0.16091
1261.00000    0.17450
1261.50000    0.18785
1262.00000    0.20082
1262.50000    0.21321
1263.00000    0.22483
1263.50000    0.23550
1264.00000    0.24502
1264.50000    0.25319
1265.00000    0.25985
1265.50000    0.26482
1266.00000    0.26798
1266.50000    0.26923
1267.00000    0.26850
1267.50000    0.26575
1268.00000    0.26102
1268.50000    0.25436
1269.00000    0.24586
1269.50000    0.23567
1270.00000    0.22397
1270.50000    0.21095
1271.00000    0.19686
1271.50000    0.18194
1272.00000    0.16645
1272.50000    0.15066
1273.00000    0.13483
1273.50000    0.11921
1274.00000    0.10403
1274.50000    0.08952
1275.00000    0.07584
1275.50000    0.06315
1276.00000    0.05156
1276.50000    0.04115
1277.00000    0.03195
1277.50000    0.02396
1278.00000    0.01714
1278.50000    0.01143
1279.00000    0.00674
1279.50000    0.00293
1280.00000   -0.00013
1280.50000   -0.00259
1281.00000   -0.00460
1281.50000   -0.00633
1282.00000   -0.00792
1282.50000   -0.00951
1283.00000   -0.01122
1283.50000   -0.01316
1284.00000   -0.01540
1284.50000   -0.01800
1285.00000   -0.02098
1285.50000   -0.02433
1286.00000   -0.02802
1286.50000   -0.03200
1287.00000   -0.03618
1287.50000   -0.04047
1288.00000   -0.04476
1288.50000   -0.04894
1289.00000   -0.05289
1289.50000   -0.05649
1290.00000   -0.05963
1290.50000   -0.06222
1291.00000   -0.06419
1291.50000   -0.06546
1292.00000   -0.06602
1292.50000   -0.06584
1293.00000   -0.06495
1293.50000   -0.06337
1294.00000   -0.06116
1294.50000   -0.05839
1295.00000   -0.05517
1295.50000   -0.05158
1296.00000   -0.04774
1296.50000   -0.04374
1297.00000   -0.03969
1297.50000   -0.03569
1298.00000   -0.03183
1298.50000   -0.02818
1299.00000   -0.02479
1299.50000   -0.02172
1300.00000   -0.01898
1300.50000   -0.01659
1301.00000   -0.01456
1301.50000   -0.01286
1302.00000   -0.01148
1302.50000   -0.01038
1303.00000   -0.00953
1303.50000   -0.00891
1304.00000   -0.00846
1304.50000   -0.00818
1305.00000   -0.00802
1305.50000   -0.00798
1306.00000   -0.00804
1306.50000   -0.00819
1307.00000   -0.00842
1307.50000   -0.00875
1308.00000   -0.00917
1308.50000   -0.00969
1309.00000   -0.01030
1309.50000   -0.01102
1310.00000   -0.01183
1310.50000   -0.01272
1311.00000   -0.01369
1311.50000   -0.01469
1312.00000   -0.01570
1312.50000   -0.01667
1313.00000   -0.01756
1313.50000   -0.01832
1314.00000   -0.01888
1314.50000   -0.01917
1315.00000   -0.01913
1315.50000   -0.01868
1316.00000   -0.01776
1316.50000   -0.01629
1317.00000   -0.01420
1317.50000   -0.01141
1318.00000   -0.00787
1318.50000   -0.00349
1319.00000    0.00179
1319.50000    0.00803
1320.00000    0.01530
1320.50000    0.02366
1321.00000    0.03319
1321.50000    0.04395
1322.00000    0.05600
1322.50000    0.06942
1323.00000    0.08428
1323.50000    0.10064
1324.00000    0.11859
1324.50000    0.13820
1325.00000    0.15953
1325.50000    0.18266
1326.00000    0.20765
1326.50000    0.23457
1327.00000    0.26346
1327.50000    0.29437
1328.00000    0.32732
1328.50000    0.36233
1329.00000    0.39938
1329.50000    0.43846
1330.00000    0.47950
1330.50000    0.52244
1331.00000    0.56715
1331.50000    0.61351
1332.00000    0.66133
1332.50000    0.71042
1333.00000    0.76054
1333.50000    0.81141
1334.00000    0.86274
1334.50000    0.91420
1335.00000    0.96542
1335.50000    1.01603
1336.00000    1.06563
1336.50000    1.11381
1337.00000    1.16015
1337.50000    1.20424
1338.00000    1.24567
1338.50000    1.28405
1339.00000    1.31900
1339.50000    1.35019
1340.00000    1.37731
1340.50000    1.40009
1341.00000    1.41832
1341.50000    1.43181
1342.00000    1.44045
1342.50000    1.44418
1343.00000    1.44298
1343.50000    1.43689
1344.00000    1.42600
1344.50000    1.41046
1345.00000    1.39046
1345.50000    1.36622
1346.00000    1.33801
1346.50000    1.30612
1347.00000    1.27088
1347.50000    1.23263
1348.00000    1.19170
1348.50000    1.14847
1349.00000    1.10329
1349.50000    1.05651
1350.00000    1.00848
1350.50000    0.95955
1351.00000    0.91004
1351.50000    0.86025
1352.00000    0.81049
1352.50000    0.76103
1353.00000    0.71213
1353.50000    0.66404
1354.00000    0.61697
1354.50000    0.57114
1355.00000    0.52672
1355.50000    0.48389
1356.00000    0.44279
1356.50000    0.40355
1357.00000    0.36628
1357.50000    0.33107
1358.00000    0.29797
1358.50000    0.26705
1359.00000    0.23832
1359.50000    0.21178
1360.00000    0.18743
1360.50000    0.16522
1361.00000    0.14510
1361.50000    0.12700
1362.00000    0.11082
1362.50000    0.09646
1363.00000    0.08381
1363.50000    0.07274
1364.00000    0.06312
1364.50000    0.05483
1365.00000    0.04772
1365.50000    0.04166
1366.00000    0.03653
1366.50000    0.03221
1367.00000    0.02859
1367.50000    0.02556
1368.00000    0.02304
1368.50000    0.02093
1369.00000    0.01917
1369.50000    0.01770
1370.00000    0.01645
1370.50000    0.01538
1371.00000    0.01445
1371.50000    0.01362
1372.00000    0.01285
1372.50000    0.01212
1373.00000    0.01139
1373.50000    0.01065
1374.00000    0.00986
1374.50000    0.00902
1375.00000    0.00810
1375.50000    0.00710
1376.00000    0.00600
1376.50000    0.00482
1377.00000    0.00354
1377.50000    0.00219
1378.00000    0.00077
1378.50000   -0.00067
1379.00000   -0.00211
1379.50000   -0.00351
1380.00000   -0.00484
1380.50000   -0.00604
1381.00000   -0.00707
1381.50000   -0.00788
1382.00000   -0.00843
1382.50000   -0.00867
1383.00000   -0.00856
1383.50000   -0.00807
1384.00000   -0.00717
1384.50000   -0.00584
1385.00000   -0.00408
1385.50000   -0.00187
1386.00000    0.00077
1386.50000    0.00384
1387.00000    0.00732
1387.50000    0.01118
1388.00000    0.01537
1388.50000    0.01987
1389.00000    0.02462
1389.50000    0.02956
1390.00000    0.03465
1390.50000    0.03979
1391.00000    0.04494
1391.50000    0.05001
1392.00000    0.05491
1392.50000    0.05957
1393.00000    0.06390
1393.50000    0.06780
1394.00000    0.07120
1394.50000    0.07401
1395.00000    0.07614
1395.50000    0.07753
1396.00000    0.07810
1396.50000    0.07781
1397.00000    0.07660
1397.50000    0.07445
1398.00000    0.07134
1398.50000    0.06728
1399.00000    0.06227
1399.50000    0.05635
1400.00000    0.04958
1400.50000    0.04200
1401.00000    0.03369
1401.50000    0.02473
1402.00000    0.01522
1402.50000    0.00525
1403.00000   -0.00508
1403.50000   -0.01567
1404.00000   -0.02643
1404.50000   -0.03724
1405.00000   -0.04802
1405.50000   -0.05866
1406.00000   -0.06908
1406.50000   -0.07919
1407.00000   -0.08890
1407.50000   -0.09812
1408.00000   -0.10677
1408.50000   -0.11476
1409.00000   -0.12200
1409.50000   -0.12842
1410.00000   -0.13394
1410.50000   -0.13848
1411.00000   -0.14198
1411.50000   -0.14438
1412.00000   -0.14563
1412.50000   -0.14572
1413.00000   -0.14462
1413.50000   -0.14237
1414.00000   -0.13899
1414.50000   -0.13456
1415.00000   -0.12916
1415.50000   -0.12290
1416.00000   -0.11593
1416.50000   -0.10838
1417.00000   -0.10044
1417.50000   -0.09227
1418.00000   -0.08405
1418.50000   -0.07596
1419.00000   -0.06816
1419.50000   -0.06080
1420.00000   -0.05399
1420.50000   -0.04784
1421.00000   -0.04240
1421.50000   -0.03769
1422.00000   -0.03371
1422.50000   -0.03042
1423.00000   -0.02774
1423.50000   -0.02558
1424.00000   -0.02381
1424.50000   -0.02231
1425.00000   -0.02092
1425.50000   -0.01950
1426.00000   -0.01793
1426.50000   -0.01606
1427.00000   -0.01381
1427.50000   -0.01108
1428.00000   -0.00782
1428.50000   -0.00398
1429.00000    0.00042
1429.50000    0.00539
1430.00000    0.01087
1430.50000    0.01681
1431.00000    0.02315
1431.50000    0.02979
1432.00000    0.03668
1432.50000    0.04372
1433.00000    0.05086
1433.50000    0.05803
1434.00000    0.06520
1434.50000    0.07234
1435.00000    0.07943
1435.50000    0.08648
1436.00000    0.09348
1436.50000    0.10047
1437.00000    0.10745
1437.50000    0.11445
1438.00000    0.12149
1438.50000    0.12856
1439.00000    0.13566
1439.50000    0.14277
1440.00000    0.14983
1440.50000    0.15679
1441.00000    0.16356
1441.50000    0.17004
1442.00000    0.17611
1442.50000    0.18165
1443.00000    0.18653
1443.50000    0.19061
1444.00000    0.19376
1444.50000    0.19585
1445.00000    0.19679
1445.50000    0.19647
1446.00000    0.19484
1446.50000    0.19187
1447.00000    0.18753
1447.50000    0.18186
1448.00000    0.17491
1448.50000    0.16676
1449.00000    0.15754
1449.50000    0.14739
1450.00000    0.13646
1450.50000    0.12495
1451.00000    0.11305
1451.50000    0.10096
1452.00000    0.08888
1452.50000    0.07701
1453.00000    0.06554
1453.50000    0.05464
1454.00000    0.04445
1454.50000    0.03512
1455.00000    0.02673
1455.50000    0.01937
1456.00000    0.01307
1456.50000    0.00785
1457.00000    0.00370
1457.50000    0.00058
1458.00000   -0.00158
1458.50000   -0.00285
1459.00000   -0.00332
1459.50000   -0.00310
1460.00000   -0.00231
1460.50000   -0.00104
1461.00000    0.00059
1461.50000    0.00248
1462.00000    0.00455
1462.50000    0.00672
1463.00000    0.00893
1463.50000    0.01112
1464.00000    0.01327
1464.50000    0.01534
1465.00000    0.01734
1465.50000    0.01925
1466.00000    0.02107
1466.50000    0.02281
1467.00000    0.02448
1467.50000    0.02607
1468.00000    0.02759
1468.50000    0.02903
1469.00000    0.03037
1469.50000    0.03161
1470.00000    0.03271
1470.50000    0.03365
1471.00000    0.03440
1471.50000    0.03493
1472.00000    0.03521
1472.50000    0.03522
1473.00000    0.03494
1473.50000    0.03435
1474.00000    0.03346
1474.50000    0.03226
1475.00000    0.03078
1475.50000    0.02902
1476.00000    0.02701
1476.50000    0.02476
1477.00000    0.02232
1477.50000    0.01969
1478.00000    0.01689
1478.50000    0.01394
1479.00000    0.01082
1479.50000    0.00755
1480.00000    0.00409
1480.50000    0.00042
1481.00000   -0.00349
1481.50000   -0.00768
1482.00000   -0.01219
1482.50000   -0.01706
1483.00000   -0.02230
1483.50000   -0.02794
1484.00000   -0.03399
1484.50000   -0.04042
1485.00000   -0.04721
1485.50000   -0.05429
1486.00000   -0.06159
1486.50000   -0.06901
1487.00000   -0.07642
1487.50000   -0.08368
1488.00000   -0.09065
1488.50000   -0.09716
1489.00000   -0.10304
1489.50000   -0.10813
1490.00000   -0.11227
1490.50000   -0.11532
1491.00000   -0.11714
1491.50000   -0.11764
1492.00000   -0.11674
1492.50000   -0.11439
1493.00000   -0.11057
1493.50000   -0.10532
1494.00000   -0.09867
1494.50000   -0.09070
1495.00000   -0.08153
1495.50000   -0.07128
1496.00000   -0.06011
1496.50000   -0.04820
1497.00000   -0.03572
1497.50000   -0.02287
1498.00000   -0.00984
1498.50000    0.00317
1499.00000    0.01599
1499.50000    0.02843
1500.00000    0.04034
1500.50000    0.05158
1501.00000    0.06202
1501.50000    0.07156
1502.00000    0.08014
1502.50000    0.08768
1503.00000    0.09416
1503.50000    0.09957
1504.00000    0.10391
1504.50000    0.10721
1505.00000    0.10949
1505.50000    0.11082
1506.00000    0.11125
1506.50000    0.11083
1507.00000    0.10962
1507.50000    0.10770
1508.00000    0.10511
1508.50000    0.10190
1509.00000    0.09812
1509.50000    0.09381
1510.00000    0.08900
1510.50000    0.08371
1511.00000    0.07795
1511.50000    0.07173
1512.00000    0.06508
1512.50000    0.05801
1513.00000    0.05053
1513.50000    0.04268
1514.00000    0.03450
1514.50000    0.02603
1515.00000    0.01734
1515.50000    0.00853
1516.00000   -0.00033
1516.50000   -0.00910
1517.00000   -0.01768
1517.50000   -0.02593
1518.00000   -0.03371
1518.50000   -0.04088
1519.00000   -0.04731
1519.50000   -0.05288
1520.00000   -0.05747
1520.50000   -0.06100
1521.00000   -0.06341
1521.50000   -0.06464
1522.00000   -0.06471
1522.50000   -0.06363
1523.00000   -0.06145
1523.50000   -0.05828
1524.00000   -0.05422
1524.50000   -0.04942
1525.00000   -0.04404
1525.50000   -0.03825
1526.00000   -0.03226
1526.50000   -0.02624
1527.00000   -0.02039
1527.50000   -0.01490
1528.00000   -0.00995
1528.50000   -0.00567
1529.00000   -0.00222
1529.50000    0.00029
1530.00000    0.00179
1530.50000    0.00220
1531.00000    0.00149
1531.50000   -0.00034
1532.00000   -0.00327
1532.50000   -0.00727
1533.00000   -0.01225
1533.50000   -0.01813
1534.00000   -0.02481
1534.50000   -0.03217
1535.00000   -0.04006
1535.50000   -0.04834
1536.00000   -0.05686
1536.50000   -0.06543
1537.00000   -0.07391
1537.50000   -0.08210
1538.00000   -0.08984
1538.50000   -0.09695
1539.00000   -0.10327
1539.50000   -0.10864
1540.00000   -0.11291
1540.50000   -0.11595
1541.00000   -0.11765
1541.50000   -0.11791
1542.00000   -0.11669
1542.50000   -0.11394
1543.00000   -0.10968
1543.50000   -0.10392
1544.00000   -0.09675
1544.50000   -0.08826
1545.00000   -0.07860
1545.50000   -0.06794
1546.00000   -0.05647
1546.50000   -0.04441
1547.00000   -0.03201
1547.50000   -0.01949
1548.00000   -0.00712
1548.50000    0.00486
1549.00000    0.01621
1549.50000    0.02673
1550.00000    0.03623
1550.50000    0.04453
1551.00000    0.05151
1551.50000    0.05710
1552.00000    0.06124
1552.50000    0.06394
1553.00000    0.06523
1553.50000    0.06519
1554.00000    0.06394
1554.50000    0.06164
1555.00000    0.05847
1555.50000    0.05462
1556.00000    0.05032
1556.50000    0.04579
1557.00000    0.04129
1557.50000    0.03704
1558.00000    0.03329
1558.50000    0.03026
1559.00000    0.02817
1559.50000    0.02723
1560.00000    0.02764
1560.50000    0.02959
1561.00000    0.03323
1561.50000    0.03874
1562.00000    0.04626
1562.50000    0.05592
1563.00000    0.06788
1563.50000    0.08224
1564.00000    0.09914
1564.50000    0.11870
1565.00000    0.14104
1565.50000    0.16628
1566.00000    0.19453
1566.50000    0.22591
1567.00000    0.26053
1567.50000    0.29851
1568.00000    0.33994
1568.50000    0.38491
1569.00000    0.43349
1569.50000    0.48576
1570.00000    0.54174
1570.50000    0.60144
1571.00000    0.66487
1571.50000    0.73197
1572.00000    0.80267
1572.50000    0.87684
1573.00000    0.95433
1573.50000    1.03494
1574.00000    1.11841
1574.50000    1.20447
1575.00000    1.29275
1575.50000    1.38288
1576.00000    1.47442
1576.50000    1.56690
1577.00000    1.65979
1577.50000    1.75254
1578.00000    1.84455
1578.50000    1.93520
1579.00000    2.02386
1579.50000    2.10986
1580.00000    2.19255
1580.50000    2.27124
1581.00000    2.34528
1581.50000    2.41402
1582.00000    2.47683
1582.50000    2.53311
1583.00000    2.58231
1583.50000    2.62392
1584.00000    2.65749
1584.50000    2.68261
1585.00000    2.69897
1585.50000    2.70632
1586.00000    2.70450
1586.50000    2.69343
1587.00000    2.67312
1587.50000    2.64369
1588.00000    2.60531
1588.50000    2.55830
1589.00000    2.50302
1589.50000    2.43995
1590.00000    2.36962
1590.50000    2.29264
1591.00000    2.20970
1591.50000    2.12153
1592.00000    2.02890
1592.50000    1.93262
1593.00000    1.83351
1593.50000    1.73240
1594.00000    1.63012
1594.50000    1.52749
1595.00000    1.42528
1595.50000    1.32423
1596.00000    1.22505
1596.50000    1.12838
1597.00000    1.03477
1597.50000    0.94476
1598.00000    0.85875
1598.50000    0.77713
1599.00000    0.70016
1599.50000    0.62806
1600.00000    0.56098
1600.50000    0.49897
1601.00000    0.44205
1601.50000    0.39018
1602.00000    0.34325
1602.50000    0.30111
1603.00000    0.26358
1603.50000    0.23044
1604.00000    0.20143
1604.50000    0.17628
1605.00000    0.15470
1605.50000    0.13637
1606.00000    0.12099
1606.50000    0.10824
1607.00000    0.09779
1607.50000    0.08934
1608.00000    0.08259
1608.50000    0.07725
1609.00000    0.07305
1609.50000    0.06975
1610.00000    0.06714
1610.50000    0.06503
1611.00000    0.06327
1611.50000    0.06175
1612.00000    0.06038
1612.50000    0.05911
1613.00000    0.05793
1613.50000    0.05685
1614.00000    0.05591
1614.50000    0.05516
1615.00000    0.05467
1615.50000    0.05452
1616.00000    0.05479
1616.50000    0.05555
1617.00000    0.05684
1617.50000    0.05871
1618.00000    0.06117
1618.50000    0.06421
1619.00000    0.06777
1619.50000    0.07180
1620.00000    0.07618
1620.50000    0.08078
1621.00000    0.08545
1621.50000    0.09002
1622.00000    0.09431
1622.50000    0.09812
1623.00000    0.10129
1623.50000    0.10363
1624.00000    0.10497
1624.50000    0.10519
1625.00000    0.10416
1625.50000    0.10180
1626.00000    0.09805
1626.50000    0.09289
1627.00000    0.08632
1627.50000    0.07837
1628.00000    0.06911
1628.50000    0.05861
1629.00000    0.04696
1629.50000    0.03430
1630.00000    0.02074
1630.50000    0.00641
1631.00000   -0.00854
1631.50000   -0.02398
1632.00000   -0.03976
1632.50000   -0.05574
1633.00000   -0.07177
1633.50000   -0.08773
1634.00000   -0.10346
1634.50000   -0.11884
1635.00000   -0.13372
1635.50000   -0.14795
1636.00000   -0.16140
1636.50000   -0.17392
1637.00000   -0.18536
1637.50000   -0.19559
1638.00000   -0.20445
1638.50000   -0.21182
1639.00000   -0.21758
1639.50000   -0.22160
1640.00000   -0.22378
1640.50000   -0.22406
1641.00000   -0.22236
1641.50000   -0.21866
1642.00000   -0.21296
1642.50000   -0.20527
1643.00000   -0.19564
1643.50000   -0.18416
1644.00000   -0.17094
1644.50000   -0.15612
1645.00000   -0.13985
1645.50000   -0.12232
1646.00000   -0.10372
1646.50000   -0.08428
1647.00000   -0.06423
1647.50000   -0.04377
1648.00000   -0.02316
1648.50000   -0.00261
1649.00000    0.01765
1649.50000    0.03742
1650.00000    0.05650
1650.50000    0.07472
1651.00000    0.09190
1651.50000    0.10792
1652.00000    0.12264
1652.50000    0.13598
1653.00000    0.14785
1653.50000    0.15818
1654.00000    0.16696
1654.50000    0.17414
1655.00000    0.17973
1655.50000    0.18375
1656.00000    0.18622
1656.50000    0.18717
1657.00000    0.18666
1657.50000    0.18475
1658.00000    0.18150
1658.50000    0.17697
1659.00000    0.17125
1659.50000    0.16441
1660.00000    0.15653
1660.50000    0.14769
1661.00000    0.13798
1661.50000    0.12749
1662.00000    0.11631
1662.50000    0.10453
1663.00000    0.09226
1663.50000    0.07959
1664.00000    0.06665
1664.50000    0.05355
1665.00000    0.04042
1665.50000    0.02739
1666.00000    0.01459
1666.50000    0.00218
1667.00000   -0.00971
1667.50000   -0.02094
1668.00000   -0.03136
1668.50000   -0.04084
1669.00000   -0.04925
1669.50000   -0.05648
1670.00000   -0.06245
1670.50000   -0.06709
1671.00000   -0.07034
1671.50000   -0.07218
1672.00000   -0.07263
1672.50000   -0.07172
1673.00000   -0.06951
1673.50000   -0.06607
1674.00000   -0.06153
1674.50000   -0.05600
1675.00000   -0.04962
1675.50000   -0.04254
1676.00000   -0.03490
1676.50000   -0.02685
1677.00000   -0.01854
1677.50000   -0.01008
1678.00000   -0.00161
1678.50000    0.00680
1679.00000    0.01506
1679.50000    0.02310
1680.00000    0.03089
1680.50000    0.03840
1681.00000    0.04561
1681.50000    0.05253
1682.00000    0.05916
1682.50000    0.06551
1683.00000    0.07157
1683.50000    0.07735
1684.00000    0.08284
1684.50000    0.08802
1685.00000    0.09286
1685.50000    0.09731
1686.00000    0.10132
1686.50000    0.10483
1687.00000    0.10777
1687.50000    0.11008
1688.00000    0.11170
1688.50000    0.11256
1689.00000    0.11263
1689.50000    0.11187
1690.00000    0.11027
1690.50000    0.10784
1691.00000    0.10459
1691.50000    0.10058
1692.00000    0.09586
1692.50000    0.09051
1693.00000    0.08462
1693.50000    0.07830
1694.00000    0.07164
1694.50000    0.06476
1695.00000    0.05775
1695.50000    0.05072
1696.00000    0.04376
1696.50000    0.03694
1697.00000    0.03034
1697.50000    0.02400
1698.00000    0.01799
1698.50000    0.01232
1699.00000    0.00702
1699.50000    0.00212
1700.00000   -0.00238
1700.50000   -0.00647
1701.00000   -0.01013
1701.50000   -0.01337
1702.00000   -0.01618
1702.50000   -0.01857
1703.00000   -0.02053
1703.50000   -0.02207
1704.00000   -0.02321
1704.50000   -0.02397
1705.00000   -0.02439
1705.50000   -0.02451
1706.00000   -0.02439
1706.50000   -0.02408
1707.00000   -0.02367
1707.50000   -0.02325
1708.00000   -0.02290
1708.50000   -0.02271
1709.00000   -0.02277
1709.50000   -0.02315
1710.00000   -0.02394
1710.50000   -0.02517
1711.00000   -0.02687
1711.50000   -0.02905
1712.00000   -0.03170
1712.50000   -0.03478
1713.00000   -0.03821
1713.50000   -0.04193
1714.00000   -0.04582
1714.50000   -0.04979
1715.00000   -0.05372
1715.50000   -0.05750
1716.00000   -0.06104
1716.50000   -0.06424
1717.00000   -0.06704
1717.50000   -0.06938
1718.00000   -0.07126
1718.50000   -0.07267
1719.00000   -0.07363
1719.50000   -0.07420
1720.00000   -0.07443
1720.50000   -0.07441
1721.00000   -0.07421
1721.50000   -0.07390
1722.00000   -0.07357
1722.50000   -0.07325
1723.00000   -0.07298
1723.50000   -0.07275
1724.00000   -0.07256
1724.50000   -0.07232
1725.00000   -0.07197
1725.50000   -0.07138
1726.00000   -0.07044
1726.50000   -0.06898
1727.00000   -0.06686
1727.50000   -0.06392
1728.00000   -0.06002
1728.50000   -0.05504
1729.00000   -0.04887
1729.50000   -0.04144
1730.00000   -0.03274
1730.50000   -0.02277
1731.00000   -0.01159
1731.50000    0.00070
1732.00000    0.01396
1732.50000    0.02800
1733.00000    0.04259
1733.50000    0.05751
1734.00000    0.07247
1734.50000    0.08720
1735.00000    0.10142
1735.50000    0.11485
1736.00000    0.12723
1736.50000    0.13832
1737.00000    0.14792
1737.50000    0.15586
1738.00000    0.16200
1738.50000    0.16627
1739.00000    0.16862
1739.50000    0.16907
1740.00000    0.16767
1740.50000    0.16452
1741.00000    0.15977
1741.50000    0.15358
1742.00000    0.14617
1742.50000    0.13775
1743.00000    0.12858
1743.50000    0.11891
1744.00000    0.10898
1744.50000    0.09904
1745.00000    0.08933
1745.50000    0.08006
1746.00000    0.07141
1746.50000    0.06353
1747.00000    0.05656
1747.50000    0.05056
1748.00000    0.04559
1748.50000    0.04164
1749.00000    0.03868
1749.50000    0.03664
1750.00000    0.03541
1750.50000    0.03488
1751.00000    0.03489
1751.50000    0.03527
1752.00000    0.03586
1752.50000    0.03648
1753.00000    0.03698
1753.50000    0.03720
1754.00000    0.03700
1754.50000    0.03628
1755.00000    0.03496
1755.50000    0.03298
1756.00000    0.03032
1756.50000    0.02700
1757.00000    0.02306
1757.50000    0.01856
1758.00000    0.01360
1758.50000    0.00829
1759.00000    0.00277
1759.50000   -0.00282
1760.00000   -0.00834
1760.50000   -0.01363
1761.00000   -0.01856
1761.50000   -0.02300
1762.00000   -0.02683
1762.50000   -0.02996
1763.00000   -0.03231
1763.50000   -0.03385
1764.00000   -0.03455
1764.50000   -0.03443
1765.00000   -0.03351
1765.50000   -0.03187
1766.00000   -0.02958
1766.50000   -0.02676
1767.00000   -0.02352
1767.50000   -0.02000
1768.00000   -0.01633
1768.50000   -0.01265
1769.00000   -0.00911
1769.50000   -0.00584
1770.00000   -0.00294
1770.50000   -0.00054
1771.00000    0.00130
1771.50000    0.00249
1772.00000    0.00301
1772.50000    0.00282
1773.00000    0.00193
1773.50000    0.00037
1774.00000   -0.00182
1774.50000   -0.00457
1775.00000   -0.00782
1775.50000   -0.01147
1776.00000   -0.01541
1776.50000   -0.01955
1777.00000   -0.02377
1777.50000   -0.02799
1778.00000   -0.03208
1778.50000   -0.03598
1779.00000   -0.03958
1779.50000   -0.04283
1780.00000   -0.04566
1780.50000   -0.04803
1781.00000   -0.04992
1781.50000   -0.05131
1782.00000   -0.05218
1782.50000   -0.05257
1783.00000   -0.05247
1783.50000   -0.05192
1784.00000   -0.05095
1784.50000   -0.04961
1785.00000   -0.04793
1785.50000   -0.04597
1786.00000   -0.04376
1786.50000   -0.04134
1787.00000   -0.03876
1787.50000   -0.03604
1788.00000   -0.03321
1788.50000   -0.03028
1789.00000   -0.02727
1789.50000   -0.02416
1790.00000   -0.02095
1790.50000   -0.01762
1791.00000   -0.01415
1791.50000   -0.01049
1792.00000   -0.00662
1792.50000   -0.00250
1793.00000    0.00190
1793.50000    0.00661
1794.00000    0.01164
1794.50000    0.01701
1795.00000    0.02269
1795.50000    0.02866
1796.00000    0.03485
1796.50000    0.04121
1797.00000    0.04763
1797.50000    0.05399
1798.00000    0.06017
1798.50000    0.06602
1799.00000    0.07138
1799.50000    0.07609
1800.00000    0.08000
1800.50000    0.08297
1801.00000    0.08487
1801.50000    0.08558
1802.00000    0.08504
1802.50000    0.08321
1803.00000    0.08007
1803.50000    0.07566
1804.00000    0.07006
1804.50000    0.06337
1805.00000    0.05573
1805.50000    0.04733
1806.00000    0.03835
1806.50000    0.02902
1807.00000    0.01954
1807.50000    0.01014
1808.00000    0.00102
1808.50000   -0.00763
1809.00000   -0.01565
1809.50000   -0.02291
1810.00000   -0.02932
1810.50000   -0.03481
1811.00000   -0.03939
1811.50000   -0.04307
1812.00000   -0.04590
1812.50000   -0.04798
1813.00000   -0.04942
1813.50000   -0.05034
1814.00000   -0.05087
1814.50000   -0.05116
1815.00000   -0.05133
1815.50000   -0.05151
1816.00000   -0.05179
1816.50000   -0.05226
1817.00000   -0.05296
1817.50000   -0.05393
1818.00000   -0.05517
1818.50000   -0.05664
1819.00000   -0.05828
1819.50000   -0.06004
1820.00000   -0.06180
1820.50000   -0.06347
1821.00000   -0.06493
1821.50000   -0.06607
1822.00000   -0.06676
1822.50000   -0.06689
1823.00000   -0.06636
1823.50000   -0.06508
1824.00000   -0.06299
1824.50000   -0.06002
1825.00000   -0.05614
1825.50000   -0.05135
1826.00000   -0.04564
1826.50000   -0.03905
1827.00000   -0.03163
1827.50000   -0.02345
1828.00000   -0.01460
1828.50000   -0.00520
1829.00000    0.00464
1829.50000    0.01476
1830.00000    0.02503
1830.50000    0.03527
1831.00000    0.04532
1831.50000    0.05501
1832.00000    0.06418
1832.50000    0.07265
1833.00000    0.08027
1833.50000    0.08691
1834.00000    0.09244
1834.50000    0.09677
1835.00000    0.09981
1835.50000    0.10152
1836.00000    0.10188
1836.50000    0.10091
1837.00000    0.09864
1837.50000    0.09517
1838.00000    0.09057
1838.50000    0.08499
1839.00000    0.07855
1839.50000    0.07143
1840.00000    0.06378
1840.50000    0.05577
1841.00000    0.04757
1841.50000    0.03933
1842.00000    0.03118
1842.50000    0.02326
1843.00000    0.01564
1843.50000    0.00842
1844.00000    0.00163
1844.50000   -0.00470
1845.00000   -0.01055
1845.50000   -0.01596
1846.00000   -0.02094
1846.50000   -0.02554
1847.00000   -0.02980
1847.50000   -0.03377
1848.00000   -0.03748
1848.50000   -0.04097
1849.00000   -0.04425
1849.50000   -0.04734
1850.00000   -0.05021
1850.50000   -0.05285
1851.00000   -0.05521
1851.50000   -0.05723
1852.00000   -0.05884
1852.50000   -0.05995
1853.00000   -0.06049
1853.50000   -0.06035
1854.00000   -0.05946
1854.50000   -0.05774
1855.00000   -0.05510
1855.50000   -0.05149
1856.00000   -0.04686
1856.50000   -0.04118
1857.00000   -0.03442
1857.50000   -0.02660
1858.00000   -0.01772
1858.50000   -0.00782
1859.00000    0.00306
1859.50000    0.01487
1860.00000    0.02754
1860.50000    0.04100
1861.00000    0.05516
1861.50000    0.06994
1862.00000    0.08525
1862.50000    0.10100
1863.00000    0.11708
1863.50000    0.13339
1864.00000    0.14983
1864.50000    0.16630
1865.00000    0.18269
1865.50000    0.19890
1866.00000    0.21483
1866.50000    0.23038
1867.00000    0.24544
1867.50000    0.25992
1868.00000    0.27373
1868.50000    0.28679
1869.00000    0.29900
1869.50000    0.31030
1870.00000    0.32062
1870.50000    0.32988
1871.00000    0.33803
1871.50000    0.34501
1872.00000    0.35078
1872.50000    0.35528
1873.00000    0.35846
1873.50000    0.36029
1874.00000    0.36072
1874.50000    0.35970
1875.00000    0.35721
1875.50000    0.35322
1876.00000    0.34769
1876.50000    0.34062
1877.00000    0.33201
1877.50000    0.32187
1878.00000    0.31025
1878.50000    0.29720
1879.00000    0.28282
1879.50000    0.26722
1880.00000    0.25055
1880.50000    0.23299
1881.00000    0.21475
1881.50000    0.19605
1882.00000    0.17715
1882.50000    0.15830
1883.00000    0.13978
1883.50000    0.12186
1884.00000    0.10480
1884.50000    0.08884
1885.00000    0.07419
1885.50000    0.06104
1886.00000    0.04952
1886.50000    0.03972
1887.00000    0.03169
1887.50000    0.02541
1888.00000    0.02082
1888.50000    0.01780
1889.00000    0.01620
1889.50000    0.01584
1890.00000    0.01648
1890.50000    0.01790
1891.00000    0.01984
1891.50000    0.02208
1892.00000    0.02437
1892.50000    0.02653
1893.00000    0.02835
1893.50000    0.02972
1894.00000    0.03053
1894.50000    0.03071
1895.00000    0.03026
1895.50000    0.02918
1896.00000    0.02754
1896.50000    0.02541
1897.00000    0.02291
1897.50000    0.02015
1898.00000    0.01726
1898.50000    0.01437
1899.00000    0.01159
1899.50000    0.00903
1900.00000    0.00678
1900.50000    0.00491
1901.00000    0.00344
1901.50000    0.00241
1902.00000    0.00179
1902.50000    0.00155
1903.00000    0.00163
1903.50000    0.00196
1904.00000    0.00246
1904.50000    0.00300
1905.00000    0.00351
1905.50000    0.00385
1906.00000    0.00394
1906.50000    0.00367
1907.00000    0.00296
1907.50000    0.00172
1908.00000   -0.00010
1908.50000   -0.00255
1909.00000   -0.00565
1909.50000   -0.00942
1910.00000   -0.01385
1910.50000   -0.01891
1911.00000   -0.02456
1911.50000   -0.03073
1912.00000   -0.03736
1912.50000   -0.04435
1913.00000   -0.05162
1913.50000   -0.05904
1914.00000   -0.06652
1914.50000   -0.07393
1915.00000   -0.08116
1915.50000   -0.08809
1916.00000   -0.09462
1916.50000   -0.10064
1917.00000   -0.10607
1917.50000   -0.11081
1918.00000   -0.11482
1918.50000   -0.11804
1919.00000   -0.12042
1919.50000   -0.12196
1920.00000   -0.12264
1920.50000   -0.12245
1921.00000   -0.12142
1921.50000   -0.11956
1922.00000   -0.11688
1922.50000   -0.11342
1923.00000   -0.10920
1923.50000   -0.10423
1924.00000   -0.09853
1924.50000   -0.09211
1925.00000   -0.08499
1925.50000   -0.07717
1926.00000   -0.06865
1926.50000   -0.05944
1927.00000   -0.04955
1927.50000   -0.03900
1928.00000   -0.02782
1928.50000   -0.01605
1929.00000   -0.00375
1929.50000    0.00900
1930.00000    0.02210
1930.50000    0.03544
1931.00000    0.04889
1931.50000    0.06230
1932.00000    0.07550
1932.50000    0.08835
1933.00000    0.10066
1933.50000    0.11227
1934.00000    0.12302
1934.50000    0.13277
1935.00000    0.14140
1935.50000    0.14879
1936.00000    0.15488
1936.50000    0.15961
1937.00000    0.16296
1937.50000    0.16495
1938.00000    0.16560
1938.50000    0.16498
1939.00000    0.16317
1939.50000    0.16028
1940.00000    0.15644
1940.50000    0.15176
1941.00000    0.14639
1941.50000    0.14046
1942.00000    0.13413
1942.50000    0.12751
1943.00000    0.12075
1943.50000    0.11397
1944.00000    0.10727
1944.50000    0.10076
1945.00000    0.09453
1945.50000    0.08866
1946.00000    0.08322
1946.50000    0.07829
1947.00000    0.07391
1947.50000    0.07013
1948.00000    0.06699
1948.50000    0.06451
1949.00000    0.06272
1949.50000    0.06161
1950.00000    0.06118
1950.50000    0.06141
1951.00000    0.06224
1951.50000    0.06361
1952.00000    0.06546
1952.50000    0.06768
1953.00000    0.07015
1953.50000    0.07274
1954.00000    0.07532
1954.50000    0.07771
1955.00000    0.07976
1955.50000    0.08131
1956.00000    0.08220
1956.50000    0.08226
1957.00000    0.08138
1957.50000    0.07943
1958.00000    0.07631
1958.50000    0.07196
1959.00000    0.06634
1959.50000    0.05945
1960.00000    0.05132
1960.50000    0.04200
1961.00000    0.03159
1961.50000    0.02022
1962.00000    0.00801
1962.50000   -0.00487
1963.00000   -0.01822
1963.50000   -0.03188
1964.00000   -0.04564
1964.50000   -0.05931
1965.00000   -0.07270
1965.50000   -0.08561
1966.00000   -0.09789
1966.50000   -0.10937
1967.00000   -0.11989
1967.50000   -0.12933
1968.00000   -0.13756
1968.50000   -0.14448
1969.00000   -0.15000
1969.50000   -0.15404
1970.00000   -0.15654
1970.50000   -0.15744
1971.00000   -0.15672
1971.50000   -0.15435
1972.00000   -0.15034
1972.50000   -0.14471
1973.00000   -0.13749
1973.50000   -0.12874
1974.00000   -0.11855
1974.50000   -0.10703
1975.00000   -0.09430
1975.50000   -0.08052
1976.00000   -0.06586
1976.50000   -0.05050
1977.00000   -0.03465
1977.50000   -0.01851
1978.00000   -0.00229
1978.50000    0.01380
1979.00000    0.02957
1979.50000    0.04485
1980.00000    0.05947
1980.50000    0.07331
1981.00000    0.08628
1981.50000    0.09830
1982.00000    0.10934
1982.50000    0.11940
1983.00000    0.12850
1983.50000    0.13669
1984.00000    0.14404
1984.50000    0.15064
1985.00000    0.15656
1985.50000    0.16190
1986.00000    0.16673
1986.50000    0.17111
1987.00000    0.17509
1987.50000    0.17869
1988.00000    0.18191
1988.50000    0.18473
1989.00000    0.18710
1989.50000    0.18895
1990.00000    0.19022
1990.50000    0.19081
1991.00000    0.19064
1991.50000    0.18962
1992.00000    0.18769
1992.50000    0.18479
1993.00000    0.18089
1993.50000    0.17598
1994.00000    0.17009
1994.50000    0.16325
1995.00000    0.15556
1995.50000    0.14711
1996.00000    0.13802
1996.50000    0.12842
1997.00000    0.11848
1997.50000    0.10835
1998.00000    0.09817
1998.50000    0.08810
1999.00000    0.07828
1999.50000    0.06882
2000.00000    0.05983
2000.50000    0.05139
2001.00000    0.04355
2001.50000    0.03634
2002.00000    0.02979
2002.50000    0.02388
2003.00000    0.01858
2003.50000    0.01387
2004.00000    0.00969
2004.50000    0.00599
2005.00000    0.00271
2005.50000   -0.00019
2006.00000   -0.00276
2006.50000   -0.00505
2007.00000   -0.00707
2007.50000   -0.00885
2008.00000   -0.01039
2008.50000   -0.01170
2009.00000   -0.01276
2009.50000   -0.01356
2010.00000   -0.01408
2010.50000   -0.01430
2011.00000   -0.01421
2011.50000   -0.01380
2012.00000   -0.01306
2012.50000   -0.01202
2013.00000   -0.01068
2013.50000   -0.00908
2014.00000   -0.00728
2014.50000   -0.00534
2015.00000   -0.00331
2015.50000   -0.00127
2016.00000    0.00071
2016.50000    0.00254
2017.00000    0.00417
2017.50000    0.00555
2018.00000    0.00662
2018.50000    0.00738
2019.00000    0.00782
2019.50000    0.00796
2020.00000    0.00786
2020.50000    0.00759
2021.00000    0.00722
2021.50000    0.00687
2022.00000    0.00665
2022.50000    0.00668
2023.00000    0.00708
2023.50000    0.00795
2024.00000    0.00938
2024.50000    0.01144
2025.00000    0.01416
2025.50000    0.01756
2026.00000    0.02159
2026.50000    0.02619
2027.00000    0.03125
2027.50000    0.03666
2028.00000    0.04223
2028.50000    0.04781
2029.00000    0.05318
2029.50000    0.05818
2030.00000    0.06261
2030.50000    0.06631
2031.00000    0.06914
2031.50000    0.07100
2032.00000    0.07183
2032.50000    0.07160
2033.00000    0.07033
2033.50000    0.06808
2034.00000    0.06496
2034.50000    0.06108
2035.00000    0.05661
2035.50000    0.05170
2036.00000    0.04653
2036.50000    0.04125
2037.00000    0.03600
2037.50000    0.03091
2038.00000    0.02607
2038.50000    0.02154
2039.00000    0.01733
2039.50000    0.01344
2040.00000    0.00981
2040.50000    0.00637
2041.00000    0.00302
2041.50000   -0.00035
2042.00000   -0.00387
2042.50000   -0.00765
2043.00000   -0.01180
2043.50000   -0.01640
2044.00000   -0.02152
2044.50000   -0.02720
2045.00000   -0.03343
2045.50000   -0.04020
2046.00000   -0.04744
2046.50000   -0.05507
2047.00000   -0.06298
2047.50000   -0.07104
2048.00000   -0.07912
2048.50000   -0.08706
2049.00000   -0.09473
2049.50000   -0.10199
2050.00000   -0.10872
2050.50000   -0.11481
2051.00000   -0.12016
2051.50000   -0.12471
2052.00000   -0.12840
2052.50000   -0.13120
2053.00000   -0.13308
2053.50000   -0.13404
2054.00000   -0.13408
2054.50000   -0.13321
2055.00000   -0.13144
2055.50000   -0.12879
2056.00000   -0.12528
2056.50000   -0.12094
2057.00000   -0.11579
2057.50000   -0.10985
2058.00000   -0.10316
2058.50000   -0.09577
2059.00000   -0.08773
2059.50000   -0.07910
2060.00000   -0.06996
2060.50000   -0.06040
2061.00000   -0.05053
2061.50000   -0.04047
2062.00000   -0.03034
2062.50000   -0.02029
2063.00000   -0.01044
2063.50000   -0.00093
2064.00000    0.00810
2064.50000    0.01654
2065.00000    0.02429
2065.50000    0.03127
2066.00000    0.03742
2066.50000    0.04270
2067.00000    0.04712
2067.50000    0.05069
2068.00000    0.05348
2068.50000    0.05554
2069.00000    0.05697
2069.50000    0.05789
2070.00000    0.05841
2070.50000    0.05867
2071.00000    0.05880
2071.50000    0.05893
2072.00000    0.05918
2072.50000    0.05967
2073.00000    0.06049
2073.50000    0.06173
2074.00000    0.06346
2074.50000    0.06573
2075.00000    0.06856
2075.50000    0.07198
2076.00000    0.07599
2076.50000    0.08056
2077.00000    0.08568
2077.50000    0.09131
2078.00000    0.09741
2078.50000    0.10393
2079.00000    0.11082
2079.50000    0.11803
2080.00000    0.12550
2080.50000    0.13317
2081.00000    0.14098
2081.50000    0.14888
2082.00000    0.15680
2082.50000    0.16467
2083.00000    0.17244
2083.50000    0.18003
2084.00000    0.18737
2084.50000    0.19436
2085.00000    0.20093
2085.50000    0.20697
2086.00000    0.21239
2086.50000    0.21709
2087.00000    0.22094
2087.50000    0.22385
2088.00000    0.22569
2088.50000    0.22636
2089.00000    0.22576
2089.50000    0.22379
2090.00000    0.22038
2090.50000    0.21546
2091.00000    0.20900
2091.50000    0.20097
2092.00000    0.19140
2092.50000    0.18032
2093.00000    0.16781
2093.50000    0.15397
2094.00000    0.13894
2094.50000    0.12288
2095.00000    0.10599
2095.50000    0.08848
2096.00000    0.07058
2096.50000    0.05253
2097.00000    0.03458
2097.50000    0.01698
2098.00000   -0.00004
2098.50000   -0.01625
2099.00000   -0.03146
2099.50000   -0.04548
2100.00000   -0.05817
2100.50000   -0.06943
2101.00000   -0.07917
2101.50000   -0.08737
2102.00000   -0.09401
2102.50000   -0.09913
2103.00000   -0.10279
2103.50000   -0.10508
2104.00000   -0.10609
2104.50000   -0.10597
2105.00000   -0.10483
2105.50000   -0.10281
2106.00000   -0.10004
2106.50000   -0.09665
2107.00000   -0.09275
2107.50000   -0.08845
2108.00000   -0.08382
2108.50000   -0.07892
2109.00000   -0.07382
2109.50000   -0.06852
2110.00000   -0.06305
2110.50000   -0.05741
2111.00000   -0.05158
2111.50000   -0.04556
2112.00000   -0.03932
2112.50000   -0.03284
2113.00000   -0.02612
2113.50000   -0.01914
2114.00000   -0.01190
2114.50000   -0.00441
2115.00000    0.00329
2115.50000    0.01118
2116.00000    0.01921
2116.50000    0.02733
2117.00000    0.03547
2117.50000    0.04356
2118.00000    0.05152
2118.50000    0.05928
2119.00000    0.06675
2119.50000    0.07387
2120.00000    0.08055
2120.50000    0.08674
2121.00000    0.09237
2121.50000    0.09739
2122.00000    0.10176
2122.50000    0.10543
2123.00000    0.10839
2123.50000    0.11059
2124.00000    0.11203
2124.50000    0.11270
2125.00000    0.11257
2125.50000    0.11165
2126.00000    0.10994
2126.50000    0.10742
2127.00000    0.10411
2127.50000    0.10000
2128.00000    0.09511
2128.50000    0.08946
2129.00000    0.08307
2129.50000    0.07597
2130.00000    0.06822
2130.50000    0.05988
2131.00000    0.05101
2131.50000    0.04170
2132.00000    0.03206
2132.50000    0.02221
2133.00000    0.01228
2133.50000    0.00240
2134.00000   -0.00729
2134.50000   -0.01662
2135.00000   -0.02545
2135.50000   -0.03363
2136.00000   -0.04105
2136.50000   -0.04757
2137.00000   -0.05310
2137.50000   -0.05758
2138.00000   -0.06093
2138.50000   -0.06316
2139.00000   -0.06427
2139.50000   -0.06429
2140.00000   -0.06329
2140.50000   -0.06136
2141.00000   -0.05862
2141.50000   -0.05519
2142.00000   -0.05121
2142.50000   -0.04682
2143.00000   -0.04219
2143.50000   -0.03743
2144.00000   -0.03270
2144.50000   -0.02810
2145.00000   -0.02374
2145.50000   -0.01969
2146.00000   -0.01603
2146.50000   -0.01279
2147.00000   -0.00998
2147.50000   -0.00762
2148.00000   -0.00570
2148.50000   -0.00418
2149.00000   -0.00304
2149.50000   -0.00224
2150.00000   -0.00174
2150.50000   -0.00149
2151.00000   -0.00147
2151.50000   -0.00163
2152.00000   -0.00196
2152.50000   -0.00243
2153.00000   -0.00302
2153.50000   -0.00372
2154.00000   -0.00452
2154.50000   -0.00541
2155.00000   -0.00638
2155.50000   -0.00743
2156.00000   -0.00853
2156.50000   -0.00966
2157.00000   -0.01081
2157.50000   -0.01194
2158.00000   -0.01302
2158.50000   -0.01403
2159.00000   -0.01493
2159.50000   -0.01569
2160.00000   -0.01629
2160.50000   -0.01671
2161.00000   -0.01695
2161.50000   -0.01700
2162.00000   -0.01689
2162.50000   -0.01664
2163.00000   -0.01628
2163.50000   -0.01585
2164.00000   -0.01541
2164.50000   -0.01501
2165.00000   -0.01469
2165.50000   -0.01450
2166.00000   -0.01449
2166.50000   -0.01467
2167.00000   -0.01507
2167.50000   -0.01568
2168.00000   -0.01647
2168.50000   -0.01743
2169.00000   -0.01850
2169.50000   -0.01961
2170.00000   -0.02071
2170.50000   -0.02171
2171.00000   -0.02253
2171.50000   -0.02310
2172.00000   -0.02337
2172.50000   -0.02326
2173.00000   -0.02274
2173.50000   -0.02179
2174.00000   -0.02040
2174.50000   -0.01857
2175.00000   -0.01633
2175.50000   -0.01371
2176.00000   -0.01076
2176.50000   -0.00753
2177.00000   -0.00408
2177.50000   -0.00045
2178.00000    0.00330
2178.50000    0.00714
2179.00000    0.01104
2179.50000    0.01496
2180.00000    0.01889
2180.50000    0.02283
2181.00000    0.02676
2181.50000    0.03067
2182.00000    0.03455
2182.50000    0.03838
2183.00000    0.04214
2183.50000    0.04577
2184.00000    0.04923
2184.50000    0.05245
2185.00000    0.05535
2185.50000    0.05785
2186.00000    0.05985
2186.50000    0.06129
2187.00000    0.06207
2187.50000    0.06213
2188.00000    0.06144
2188.50000    0.05997
2189.00000    0.05772
2189.50000    0.05473
2190.00000    0.05107
2190.50000    0.04681
2191.00000    0.04209
2191.50000    0.03701
2192.00000    0.03172
2192.50000    0.02636
2193.00000    0.02106
2193.50000    0.01594
2194.00000    0.01110
2194.50000    0.00660
2195.00000    0.00249
2195.50000   -0.00124
2196.00000   -0.00460
2196.50000   -0.00765
2197.00000   -0.01048
2197.50000   -0.01319
2198.00000   -0.01588
2198.50000   -0.01867
2199.00000   -0.02166
2199.50000   -0.02493
2200.00000   -0.02855
2200.50000   -0.03253
2201.00000   -0.03688
2201.50000   -0.04154
2202.00000   -0.04644
2202.50000   -0.05145
2203.00000   -0.05644
2203.50000   -0.06124
2204.00000   -0.06567
2204.50000   -0.06955
2205.00000   -0.07272
2205.50000   -0.07502
2206.00000   -0.07631
2206.50000   -0.07651
2207.00000   -0.07554
2207.50000   -0.07339
2208.00000   -0.07008
2208.50000   -0.06564
2209.00000   -0.06017
2209.50000   -0.05377
2210.00000   -0.04660
2210.50000   -0.03878
2211.00000   -0.03048
2211.50000   -0.02185
2212.00000   -0.01305
2212.50000   -0.00421
2213.00000    0.00453
2213.50000    0.01306
2214.00000    0.02128
2214.50000    0.02911
2215.00000    0.03647
2215.50000    0.04331
2216.00000    0.04958
2216.50000    0.05523
2217.00000    0.06023
2217.50000    0.06455
2218.00000    0.06815
2218.50000    0.07103
2219.00000    0.07316
2219.50000    0.07453
2220.00000    0.07515
2220.50000    0.07503
2221.00000    0.07419
2221.50000    0.07267
2222.00000    0.07052
2222.50000    0.06779
2223.00000    0.06456
2223.50000    0.06090
2224.00000    0.05688
2224.50000    0.05258
2225.00000    0.04804
2225.50000    0.04333
2226.00000    0.03847
2226.50000    0.03349
2227.00000    0.02838
2227.50000    0.02311
2228.00000    0.01766
2228.50000    0.01197
2229.00000    0.00600
2229.50000   -0.00032
2230.00000   -0.00702
2230.50000   -0.01413
2231.00000   -0.02168
2231.50000   -0.02965
2232.00000   -0.03799
2232.50000   -0.04664
2233.00000   -0.05548
2233.50000   -0.06439
2234.00000   -0.07321
2234.50000   -0.08177
2235.00000   -0.08988
2235.50000   -0.09736
2236.00000   -0.10402
2236.50000   -0.10970
2237.00000   -0.11425
2237.50000   -0.11757
2238.00000   -0.11957
2238.50000   -0.12021
2239.00000   -0.11948
2239.50000   -0.11742
2240.00000   -0.11408
2240.50000   -0.10955
2241.00000   -0.10396
2241.50000   -0.09741
2242.00000   -0.09005
2242.50000   -0.08202
2243.00000   -0.07344
2243.50000   -0.06446
2244.00000   -0.05520
2244.50000   -0.04576
2245.00000   -0.03624
2245.50000   -0.02675
2246.00000   -0.01738
2246.50000   -0.00820
2247.00000    0.00068
2247.50000    0.00919
2248.00000    0.01722
2248.50000    0.02469
2249.00000    0.03148
2249.50000    0.03750
2250.00000    0.04267
2250.50000    0.04689
2251.00000    0.05011
2251.50000    0.05228
2252.00000    0.05339
2252.50000    0.05347
2253.00000    0.05257
2253.50000    0.05080
2254.00000    0.04831
2254.50000    0.04525
2255.00000    0.04185
2255.50000    0.03832
2256.00000    0.03491
2256.50000    0.03185
2257.00000    0.02937
2257.50000    0.02767
2258.00000    0.02692
2258.50000    0.02724
2259.00000    0.02871
2259.50000    0.03132
2260.00000    0.03503
2260.50000    0.03975
2261.00000    0.04531
2261.50000    0.05152
2262.00000    0.05814
2262.50000    0.06492
2263.00000    0.07159
2263.50000    0.07790
2264.00000    0.08360
2264.50000    0.08850
2265.00000    0.09240
2265.50000    0.09521
2266.00000    0.09684
2266.50000    0.09727
2267.00000    0.09654
2267.50000    0.09473
2268.00000    0.09195
2268.50000    0.08835
2269.00000    0.08410
2269.50000    0.07938
2270.00000    0.07437
2270.50000    0.06924
2271.00000    0.06412
2271.50000    0.05916
2272.00000    0.05444
2272.50000    0.05003
2273.00000    0.04595
2273.50000    0.04219
2274.00000    0.03874
2274.50000    0.03554
2275.00000    0.03250
2275.50000    0.02955
2276.00000    0.02659
2276.50000    0.02353
2277.00000    0.02027
2277.50000    0.01672
2278.00000    0.01282
2278.50000    0.00850
2279.00000    0.00371
2279.50000   -0.00159
2280.00000   -0.00739
2280.50000   -0.01372
2281.00000   -0.02054
2281.50000   -0.02784
2282.00000   -0.03556
2282.50000   -0.04365
2283.00000   -0.05202
2283.50000   -0.06059
2284.00000   -0.06926
2284.50000   -0.07790
2285.00000   -0.08638
2285.50000   -0.09458
2286.00000   -0.10234
2286.50000   -0.10950
2287.00000   -0.11593
2287.50000   -0.12146
2288.00000   -0.12597
2288.50000   -0.12931
2289.00000   -0.13138
2289.50000   -0.13209
2290.00000   -0.13137
2290.50000   -0.12920
2291.00000   -0.12555
2291.50000   -0.12047
2292.00000   -0.11401
2292.50000   -0.10626
2293.00000   -0.09734
2293.50000   -0.08740
2294.00000   -0.07658
2294.50000   -0.06509
2295.00000   -0.05310
2295.50000   -0.04080
2296.00000   -0.02839
2296.50000   -0.01607
2297.00000   -0.00399
2297.50000    0.00766
2298.00000    0.01874
2298.50000    0.02913
2299.00000    0.03872
2299.50000    0.04741
2300.00000    0.05514
2300.50000    0.06187
2301.00000    0.06757
2301.50000    0.07224
2302.00000    0.07589
2302.50000    0.07854
2303.00000    0.08023
2303.50000    0.08103
2304.00000    0.08099
2304.50000    0.08019
2305.00000    0.07870
2305.50000    0.07663
2306.00000    0.07404
2306.50000    0.07103
2307.00000    0.06769
2307.50000    0.06410
2308.00000    0.06034
2308.50000    0.05648
2309.00000    0.05258
2309.50000    0.04869
2310.00000    0.04486
2310.50000    0.04113
2311.00000    0.03750
2311.50000    0.03401
2312.00000    0.03064
2312.50000    0.02740
2313.00000    0.02429
2313.50000    0.02129
2314.00000    0.01840
2314.50000    0.01559
2315.00000    0.01285
2315.50000    0.01019
2316.00000    0.00759
2316.50000    0.00505
2317.00000    0.00257
2317.50000    0.00017
2318.00000   -0.00217
2318.50000   -0.00441
2319.00000   -0.00656
2319.50000   -0.00859
2320.00000   -0.01050
2320.50000   -0.01226
2321.00000   -0.01386
2321.50000   -0.01529
2322.00000   -0.01653
2322.50000   -0.01757
2323.00000   -0.01839
2323.50000   -0.01899
2324.00000   -0.01935
2324.50000   -0.01945
2325.00000   -0.01929
2325.50000   -0.01886
2326.00000   -0.01816
2326.50000   -0.01718
2327.00000   -0.01594
2327.50000   -0.01443
2328.00000   -0.01268
2328.50000   -0.01072
2329.00000   -0.00858
2329.50000   -0.00631
2330.00000   -0.00394
2330.50000   -0.00154
2331.00000    0.00082
2331.50000    0.00310
2332.00000    0.00522
2332.50000    0.00712
2333.00000    0.00875
2333.50000    0.01005
2334.00000    0.01099
2334.50000    0.01152
2335.00000    0.01163
2335.50000    0.01131
2336.00000    0.01056
2336.50000    0.00939
2337.00000    0.00782
2337.50000    0.00588
2338.00000    0.00359
2338.50000    0.00100
2339.00000   -0.00187
2339.50000   -0.00498
2340.00000   -0.00831
2340.50000   -0.01184
2341.00000   -0.01555
2341.50000   -0.01943
2342.00000   -0.02346
2342.50000   -0.02764
2343.00000   -0.03197
2343.50000   -0.03643
2344.00000   -0.04101
2344.50000   -0.04568
2345.00000   -0.05041
2345.50000   -0.05515
2346.00000   -0.05983
2346.50000   -0.06437
2347.00000   -0.06868
2347.50000   -0.07265
2348.00000   -0.07615
2348.50000   -0.07907
2349.00000   -0.08125
2349.50000   -0.08258
2350.00000   -0.08292
2350.50000   -0.08216
2351.00000   -0.08020
2351.50000   -0.07698
2352.00000   -0.07246
2352.50000   -0.06662
2353.00000   -0.05950
2353.50000   -0.05118
2354.00000   -0.04177
2354.50000   -0.03142
2355.00000   -0.02032
2355.50000   -0.00870
2356.00000    0.00319
2356.50000    0.01509
2357.00000    0.02673
2357.50000    0.03783
2358.00000    0.04812
2358.50000    0.05736
2359.00000    0.06534
2359.50000    0.07188
2360.00000    0.07684
2360.50000    0.08016
2361.00000    0.08181
2361.50000    0.08182
2362.00000    0.08027
2362.50000    0.07730
2363.00000    0.07308
2363.50000    0.06783
2364.00000    0.06180
2364.50000    0.05525
2365.00000    0.04844
2365.50000    0.04163
2366.00000    0.03508
2366.50000    0.02900
2367.00000    0.02359
2367.50000    0.01900
2368.00000    0.01535
2368.50000    0.01271
2369.00000    0.01109
2369.50000    0.01048
2370.00000    0.01082
2370.50000    0.01203
2371.00000    0.01398
2371.50000    0.01654
2372.00000    0.01956
2372.50000    0.02287
2373.00000    0.02633
2373.50000    0.02978
2374.00000    0.03307
2374.50000    0.03608
2375.00000    0.03870
2375.50000    0.04083
2376.00000    0.04239
2376.50000    0.04335
2377.00000    0.04366
2377.50000    0.04332
2378.00000    0.04232
2378.50000    0.04070
2379.00000    0.03849
2379.50000    0.03575
2380.00000    0.03254
2380.50000    0.02893
2381.00000    0.02503
2381.50000    0.02091
2382.00000    0.01668
2382.50000    0.01242
2383.00000    0.00823
2383.50000    0.00420
2384.00000    0.00039
2384.50000   -0.00314
2385.00000   -0.00633
2385.50000   -0.00917
2386.00000   -0.01165
2386.50000   -0.01378
2387.00000   -0.01560
2387.50000   -0.01715
2388.00000   -0.01849
2388.50000   -0.01969
2389.00000   -0.02082
2389.50000   -0.02195
2390.00000   -0.02313
2390.50000   -0.02442
2391.00000   -0.02584
2391.50000   -0.02741
2392.00000   -0.02913
2392.50000   -0.03096
2393.00000   -0.03286
2393.50000   -0.03477
2394.00000   -0.03661
2394.50000   -0.03830
2395.00000   -0.03976
2395.50000   -0.04093
2396.00000   -0.04173
2396.50000   -0.04212
2397.00000   -0.04207
2397.50000   -0.04157
2398.00000   -0.04064
2398.50000   -0.03931
2399.00000   -0.03763
2399.50000   -0.03566
2400.00000   -0.03348
2400.50000   -0.03117
2401.00000   -0.02880
2401.50000   -0.02645
2402.00000   -0.02416
2402.50000   -0.02198
2403.00000   -0.01994
2403.50000   -0.01806
2404.00000   -0.01634
2404.50000   -0.01475
2405.00000   -0.01329
2405.50000   -0.01191
2406.00000   -0.01059
2406.50000   -0.00930
2407.00000   -0.00802
2407.50000   -0.00674
2408.00000   -0.00544
2408.50000   -0.00413
2409.00000   -0.00281
2409.50000   -0.00151
2410.00000   -0.00025
2410.50000    0.00096
2411.00000    0.00209
2411.50000    0.00313
2412.00000    0.00406
2412.50000    0.00489
2413.00000    0.00563
2413.50000    0.00627
2414.00000    0.00683
2414.50000    0.00734
2415.00000    0.00781
2415.50000    0.00825
2416.00000    0.00866
2416.50000    0.00905
2417.00000    0.00940
2417.50000    0.00969
2418.00000    0.00988
2418.50000    0.00992
2419.00000    0.00978
2419.50000    0.00941
2420.00000    0.00875
2420.50000    0.00777
2421.00000    0.00645
2421.50000    0.00478
2422.00000    0.00276
2422.50000    0.00042
2423.00000   -0.00220
2423.50000   -0.00503
2424.00000   -0.00800
2424.50000   -0.01102
2425.00000   -0.01401
2425.50000   -0.01688
2426.00000   -0.01955
2426.50000   -0.02195
2427.00000   -0.02403
2427.50000   -0.02577
2428.00000   -0.02716
2428.50000   -0.02822
2429.00000   -0.02900
2429.50000   -0.02955
2430.00000   -0.02995
2430.50000   -0.03028
2431.00000   -0.03064
2431.50000   -0.03111
2432.00000   -0.03178
2432.50000   -0.03270
2433.00000   -0.03391
2433.50000   -0.03544
2434.00000   -0.03728
2434.50000   -0.03940
2435.00000   -0.04173
2435.50000   -0.04420
2436.00000   -0.04670
2436.50000   -0.04913
2437.00000   -0.05135
2437.50000   -0.05325
2438.00000   -0.05472
2438.50000   -0.05564
2439.00000   -0.05594
2439.50000   -0.05555
2440.00000   -0.05443
2440.50000   -0.05258
2441.00000   -0.05002
2441.50000   -0.04679
2442.00000   -0.04297
2442.50000   -0.03865
2443.00000   -0.03393
2443.50000   -0.02895
2444.00000   -0.02380
2444.50000   -0.01861
2445.00000   -0.01349
2445.50000   -0.00850
2446.00000   -0.00374
2446.50000    0.00078
2447.00000    0.00502
2447.50000    0.00899
2448.00000    0.01271
2448.50000    0.01625
2449.00000    0.01964
2449.50000    0.02297
2450.00000    0.02629
2450.50000    0.02968
2451.00000    0.03318
2451.50000    0.03683
2452.00000    0.04064
2452.50000    0.04461
2453.00000    0.04872
2453.50000    0.05291
2454.00000    0.05711
2454.50000    0.06125
2455.00000    0.06524
2455.50000    0.06898
2456.00000    0.07239
2456.50000    0.07539
2457.00000    0.07792
2457.50000    0.07993
2458.00000    0.08141
2458.50000    0.08236
2459.00000    0.08278
2459.50000    0.08273
2460.00000    0.08226
2460.50000    0.08143
2461.00000    0.08030
2461.50000    0.07894
2462.00000    0.07740
2462.50000    0.07574
2463.00000    0.07397
2463.50000    0.07212
2464.00000    0.07016
2464.50000    0.06809
2465.00000    0.06585
2465.50000    0.06341
2466.00000    0.06069
2466.50000    0.05766
2467.00000    0.05424
2467.50000    0.05042
2468.00000    0.04614
2468.50000    0.04141
2469.00000    0.03622
2469.50000    0.03061
2470.00000    0.02461
2470.50000    0.01830
2471.00000    0.01175
2471.50000    0.00506
2472.00000   -0.00169
2472.50000   -0.00838
2473.00000   -0.01492
2473.50000   -0.02121
2474.00000   -0.02715
2474.50000   -0.03265
2475.00000   -0.03765
2475.50000   -0.04207
2476.00000   -0.04585
2476.50000   -0.04896
2477.00000   -0.05134
2477.50000   -0.05298
2478.00000   -0.05385
2478.50000   -0.05394
2479.00000   -0.05322
2479.50000   -0.05172
2480.00000   -0.04942
2480.50000   -0.04634
2481.00000   -0.04251
2481.50000   -0.03796
2482.00000   -0.03274
2482.50000   -0.02690
2483.00000   -0.02052
2483.50000   -0.01368
2484.00000   -0.00649
2484.50000    0.00094
2485.00000    0.00849
2485.50000    0.01601
2486.00000    0.02337
2486.50000    0.03039
2487.00000    0.03694
2487.50000    0.04286
2488.00000    0.04799
2488.50000    0.05220
2489.00000    0.05536
2489.50000    0.05736
2490.00000    0.05811
2490.50000    0.05755
2491.00000    0.05566
2491.50000    0.05242
2492.00000    0.04788
2492.50000    0.04209
2493.00000    0.03516
2493.50000    0.02722
2494.00000    0.01842
2494.50000    0.00894
2495.00000   -0.00100
2495.50000   -0.01119
2496.00000   -0.02140
2496.50000   -0.03142
2497.00000   -0.04102
2497.50000   -0.04999
2498.00000   -0.05815
2498.50000   -0.06532
2499.00000   -0.07139
2499.50000   -0.07622
2500.00000   -0.07976
2500.50000   -0.08195
2501.00000   -0.08279
2501.50000   -0.08227
2502.00000   -0.08044
2502.50000   -0.07734
2503.00000   -0.07306
2503.50000   -0.06767
2504.00000   -0.06126
2504.50000   -0.05392
2505.00000   -0.04576
2505.50000   -0.03686
2506.00000   -0.02733
2506.50000   -0.01726
2507.00000   -0.00675
2507.50000    0.00411
2508.00000    0.01519
2508.50000    0.02640
2509.00000    0.03762
2509.50000    0.04873
2510.00000    0.05960
2510.50000    0.07008
2511.00000    0.08005
2511.50000    0.08936
2512.00000    0.09787
2512.50000    0.10544
2513.00000    0.11194
2513.50000    0.11727
2514.00000    0.12131
2514.50000    0.12398
2515.00000    0.12524
2515.50000    0.12503
2516.00000    0.12336
2516.50000    0.12023
2517.00000    0.11570
2517.50000    0.10982
2518.00000    0.10269
2518.50000    0.09441
2519.00000    0.08513
2519.50000    0.07498
2520.00000    0.06412
2520.50000    0.05273
2521.00000    0.04097
2521.50000    0.02902
2522.00000    0.01705
2522.50000    0.00523
2523.00000   -0.00630
2523.50000   -0.01739
2524.00000   -0.02792
2524.50000   -0.03781
2525.00000   -0.04695
2525.50000   -0.05532
2526.00000   -0.06288
2526.50000   -0.06962
2527.00000   -0.07558
2527.50000   -0.08079
2528.00000   -0.08532
2528.50000   -0.08922
2529.00000   -0.09259
2529.50000   -0.09549
2530.00000   -0.09801
2530.50000   -0.10019
2531.00000   -0.10210
2531.50000   -0.10376
2532.00000   -0.10518
2532.50000   -0.10635
2533.00000   -0.10724
2533.50000   -0.10779
2534.00000   -0.10795
2534.50000   -0.10763
2535.00000   -0.10675
2535.50000   -0.10525
2536.00000   -0.10304
2536.50000   -0.10007
2537.00000   -0.09631
2537.50000   -0.09174
2538.00000   -0.08638
2538.50000   -0.08026
2539.00000   -0.07345
2539.50000   -0.06603
2540.00000   -0.05811
2540.50000   -0.04982
2541.00000   -0.04129
2541.50000   -0.03266
2542.00000   -0.02408
2542.50000   -0.01566
2543.00000   -0.00755
2543.50000    0.00016
2544.00000    0.00736
2544.50000    0.01399
2545.00000    0.01999
2545.50000    0.02532
2546.00000    0.02996
2546.50000    0.03391
2547.00000    0.03718
2547.50000    0.03978
2548.00000    0.04176
2548.50000    0.04315
2549.00000    0.04400
2549.50000    0.04434
2550.00000    0.04424
2550.50000    0.04374
2551.00000    0.04290
2551.50000    0.04177
2552.00000    0.04041
2552.50000    0.03886
2553.00000    0.03718
2553.50000    0.03541
2554.00000    0.03360
2554.50000    0.03179
2555.00000    0.03002
2555.50000    0.02831
2556.00000    0.02669
2556.50000    0.02519
2557.00000    0.02381
2557.50000    0.02257
2558.00000    0.02149
2558.50000    0.02055
2559.00000    0.01977
2559.50000    0.01915
2560.00000    0.01869
2560.50000    0.01840
2561.00000    0.01827
2561.50000    0.01833
2562.00000    0.01857
2562.50000    0.01901
2563.00000    0.01965
2563.50000    0.02050
2564.00000    0.02157
2564.50000    0.02284
2565.00000    0.02433
2565.50000    0.02601
2566.00000    0.02788
2566.50000    0.02990
2567.00000    0.03204
2567.50000    0.03426
2568.00000    0.03652
2568.50000    0.03877
2569.00000    0.04095
2569.50000    0.04299
2570.00000    0.04484
2570.50000    0.04642
2571.00000    0.04767
2571.50000    0.04852
2572.00000    0.04890
2572.50000    0.04873
2573.00000    0.04795
2573.50000    0.04650
2574.00000    0.04430
2574.50000    0.04131
2575.00000    0.03749
2575.50000    0.03279
2576.00000    0.02719
2576.50000    0.02069
2577.00000    0.01332
2577.50000    0.00510
2578.00000   -0.00389
2578.50000   -0.01358
2579.00000   -0.02383
2579.50000   -0.03452
2580.00000   -0.04548
2580.50000   -0.05653
2581.00000   -0.06746
2581.50000   -0.07808
2582.00000   -0.08817
2582.50000   -0.09753
2583.00000   -0.10595
2583.50000   -0.11327
2584.00000   -0.11931
2584.50000   -0.12395
2585.00000   -0.12709
2585.50000   -0.12867
2586.00000   -0.12867
2586.50000   -0.12709
2587.00000   -0.12399
2587.50000   -0.11943
2588.00000   -0.11354
2588.50000   -0.10644
2589.00000   -0.09828
2589.50000   -0.08923
2590.00000   -0.07947
2590.50000   -0.06917
2591.00000   -0.05850
2591.50000   -0.04764
2592.00000   -0.03675
2592.50000   -0.02598
2593.00000   -0.01547
2593.50000   -0.00535
2594.00000    0.00426
2594.50000    0.01326
2595.00000    0.02156
2595.50000    0.02908
2596.00000    0.03575
2596.50000    0.04151
2597.00000    0.04634
2597.50000    0.05018
2598.00000    0.05303
2598.50000    0.05488
2599.00000    0.05574
2599.50000    0.05565
2600.00000    0.05465
2600.50000    0.05282
2601.00000    0.05022
2601.50000    0.04697
2602.00000    0.04318
2602.50000    0.03897
2603.00000    0.03449
2603.50000    0.02987
2604.00000    0.02526
2604.50000    0.02080
2605.00000    0.01660
2605.50000    0.01278
2606.00000    0.00944
2606.50000    0.00663
2607.00000    0.00441
2607.50000    0.00279
2608.00000    0.00175
2608.50000    0.00126
2609.00000    0.00124
2609.50000    0.00162
2610.00000    0.00228
2610.50000    0.00312
2611.00000    0.00401
2611.50000    0.00484
2612.00000    0.00550
2612.50000    0.00589
2613.00000    0.00593
2613.50000    0.00557
2614.00000    0.00477
2614.50000    0.00353
2615.00000    0.00188
2615.50000   -0.00014
2616.00000   -0.00247
2616.50000   -0.00501
2617.00000   -0.00768
2617.50000   -0.01035
2618.00000   -0.01293
2618.50000   -0.01532
2619.00000   -0.01741
2619.50000   -0.01913
2620.00000   -0.02041
2620.50000   -0.02120
2621.00000   -0.02147
2621.50000   -0.02119
2622.00000   -0.02037
2622.50000   -0.01901
2623.00000   -0.01712
2623.50000   -0.01472
2624.00000   -0.01182
2624.50000   -0.00842
2625.00000   -0.00451
2625.50000   -0.00007
2626.00000    0.00492
2626.50000    0.01051
2627.00000    0.01676
2627.50000    0.02372
2628.00000    0.03148
2628.50000    0.04010
2629.00000    0.04963
2629.50000    0.06014
2630.00000    0.07165
2630.50000    0.08419
2631.00000    0.09775
2631.50000    0.11230
2632.00000    0.12780
2632.50000    0.14417
2633.00000    0.16133
2633.50000    0.17918
2634.00000    0.19762
2634.50000    0.21654
2635.00000    0.23584
2635.50000    0.25545
2636.00000    0.27530
2636.50000    0.29534
2637.00000    0.31557
2637.50000    0.33599
2638.00000    0.35665
2638.50000    0.37763
2639.00000    0.39901
2639.50000    0.42091
2640.00000    0.44347
2640.50000    0.46685
2641.00000    0.49121
2641.50000    0.51671
2642.00000    0.54354
2642.50000    0.57188
2643.00000    0.60192
2643.50000    0.63385
2644.00000    0.66787
2644.50000    0.70419
2645.00000    0.74302
2645.50000    0.78459
2646.00000    0.82916
2646.50000    0.87697
2647.00000    0.92830
2647.50000    0.98343
2648.00000    1.04265
2648.50000    1.10626
2649.00000    1.17455
2649.50000    1.24780
2650.00000    1.32628
2650.50000    1.41024
2651.00000    1.49991
2651.50000    1.59547
2652.00000    1.69707
2652.50000    1.80484
2653.00000    1.91886
2653.50000    2.03915
2654.00000    2.16573
2654.50000    2.29855
2655.00000    2.43756
2655.50000    2.58267
2656.00000    2.73375
2656.50000    2.89070
2657.00000    3.05336
2657.50000    3.22161
2658.00000    3.39528
2658.50000    3.57422
2659.00000    3.75829
2659.50000    3.94733
2660.00000    4.14117
2660.50000    4.33964
2661.00000    4.54255
2661.50000    4.74970
2662.00000    4.96084
2662.50000    5.17569
2663.00000    5.39395
2663.50000    5.61523
2664.00000    5.83912
2664.50000    6.06511
2665.00000    6.29265
2665.50000    6.52110
2666.00000    6.74975
2666.50000    6.97783
2667.00000    7.20449
2667.50000    7.42882
2668.00000    7.64985
2668.50000    7.86659
2669.00000    8.07800
2669.50000    8.28303
2670.00000    8.48064
2670.50000    8.66979
2671.00000    8.84948
2671.50000    9.01877
2672.00000    9.17676
2672.50000    9.32264
2673.00000    9.45567
2673.50000    9.57521
2674.00000    9.68070
2674.50000    9.77169
2675.00000    9.84784
2675.50000    9.90886
2676.00000    9.95461
2676.50000    9.98498
2677.00000   10.00000
2677.50000    9.99974
2678.00000    9.98435
2678.50000    9.95408
2679.00000    9.90921
2679.50000    9.85011
2680.00000    9.77720
2680.50000    9.69096
2681.00000    9.59194
2681.50000    9.48074
2682.00000    9.35800
2682.50000    9.22442
2683.00000    9.08072
2683.50000    8.92768
2684.00000    8.76606
2684.50000    8.59667
2685.00000    8.42030
2685.50000    8.23773
2686.00000    8.04973
2686.50000    7.85703
2687.00000    7.66032
2687.50000    7.46027
2688.00000    7.25751
2688.50000    7.05260
2689.00000    6.84610
2689.50000    6.63852
2690.00000    6.43035
2690.50000    6.22205
2691.00000    6.01408
2691.50000    5.80689
2692.00000    5.60094
2692.50000    5.39668
2693.00000    5.19455
2693.50000    4.99503
2694.00000    4.79856
2694.50000    4.60558
2695.00000    4.41652
2695.50000    4.23178
2696.00000    4.05171
2696.50000    3.87662
2697.00000    3.70678
2697.50000    3.54238
2698.00000    3.38356
2698.50000    3.23039
2699.00000    3.08286
2699.50000    2.94095
2700.00000    2.80453
2700.50000    2.67347
2701.00000    2.54760
2701.50000    2.42672
2702.00000    2.31063
2702.50000    2.19913
2703.00000    2.09203
2703.50000    1.98917
2704.00000    1.89039
2704.50000    1.79557
2705.00000    1.70463
2705.50000    1.61749
2706.00000    1.53410
2706.50000    1.45444
2707.00000    1.37846
2707.50000    1.30616
2708.00000    1.23748
2708.50000    1.17239
2709.00000    1.11081
2709.50000    1.05266
2710.00000    0.99781
2710.50000    0.94611
2711.00000    0.89738
2711.50000    0.85142
2712.00000    0.80800
2712.50000    0.76687
2713.00000    0.72776
2713.50000    0.69042
2714.00000    0.65459
2714.50000    0.62000
2715.00000    0.58644
2715.50000    0.55370
2716.00000    0.52160
2716.50000    0.48999
2717.00000    0.45879
2717.50000    0.42793
2718.00000    0.39738
2718.50000    0.36717
2719.00000    0.33734
2719.50000    0.30796
2720.00000    0.27913
2720.50000    0.25096
2721.00000    0.22357
2721.50000    0.19707
2722.00000    0.17158
2722.50000    0.14721
2723.00000    0.12403
2723.50000    0.10212
2724.00000    0.08154
2724.50000    0.06232
2725.00000    0.04449
2725.50000    0.02806
2726.00000    0.01303
2726.50000   -0.00058
2727.00000   -0.01278
2727.50000   -0.02355
2728.00000   -0.03290
2728.50000   -0.04080
2729.00000   -0.04723
2729.50000   -0.05219
2730.00000   -0.05564
2730.50000   -0.05760
2731.00000   -0.05805
2731.50000   -0.05704
2732.00000   -0.05460
2732.50000   -0.05081
2733.00000   -0.04578
2733.50000   -0.03964
2734.00000   -0.03256
2734.50000   -0.02471
2735.00000   -0.01630
2735.50000   -0.00755
2736.00000    0.00132
2736.50000    0.01009
2737.00000    0.01857
2737.50000    0.02656
2738.00000    0.03390
2738.50000    0.04047
2739.00000    0.04616
2739.50000    0.05092
2740.00000    0.05470
2740.50000    0.05751
2741.00000    0.05936
2741.50000    0.06030
2742.00000    0.06040
2742.50000    0.05971
2743.00000    0.05832
2743.50000    0.05631
2744.00000    0.05375
2744.50000    0.05072
2745.00000    0.04730
2745.50000    0.04356
2746.00000    0.03957
2746.50000    0.03540
2747.00000    0.03112
2747.50000    0.02682
2748.00000    0.02255
2748.50000    0.01841
2749.00000    0.01446
2749.50000    0.01076
2750.00000    0.00737
2750.50000    0.00435
2751.00000    0.00171
2751.50000   -0.00054
2752.00000   -0.00242
2752.50000   -0.00397
2753.00000   -0.00528
2753.50000   -0.00644
2754.00000   -0.00757
2754.50000   -0.00879
2755.00000   -0.01026
2755.50000   -0.01210
2756.00000   -0.01444
2756.50000   -0.01738
2757.00000   -0.02100
2757.50000   -0.02533
2758.00000   -0.03037
2758.50000   -0.03606
2759.00000   -0.04229
2759.50000   -0.04893
2760.00000   -0.05579
2760.50000   -0.06265
2761.00000   -0.06928
2761.50000   -0.07545
2762.00000   -0.08091
2762.50000   -0.08546
2763.00000   -0.08889
2763.50000   -0.09106
2764.00000   -0.09186
2764.50000   -0.09123
2765.00000   -0.08915
2765.50000   -0.08567
2766.00000   -0.08086
2766.50000   -0.07484
2767.00000   -0.06775
2767.50000   -0.05977
2768.00000   -0.05105
2768.50000   -0.04176
2769.00000   -0.03207
2769.50000   -0.02211
2770.00000   -0.01200
2770.50000   -0.00183
2771.00000    0.00835
2771.50000    0.01849
2772.00000    0.02858
2772.50000    0.03862
2773.00000    0.04862
2773.50000    0.05859
2774.00000    0.06854
2774.50000    0.07847
2775.00000    0.08836
2775.50000    0.09816
2776.00000    0.10780
2776.50000    0.11720
2777.00000    0.12624
2777.50000    0.13477
2778.00000    0.14266
2778.50000    0.14973
2779.00000    0.15582
2779.50000    0.16076
2780.00000    0.16440
2780.50000    0.16660
2781.00000    0.16726
2781.50000    0.16629
2782.00000    0.16365
2782.50000    0.15932
2783.00000    0.15332
2783.50000    0.14573
2784.00000    0.13663
2784.50000    0.12615
2785.00000    0.11447
2785.50000    0.10174
2786.00000    0.08818
2786.50000    0.07399
2787.00000    0.05938
2787.50000    0.04459
2788.00000    0.02981
2788.50000    0.01526
2789.00000    0.00112
2789.50000   -0.01242
2790.00000   -0.02521
2790.50000   -0.03710
2791.00000   -0.04798
2791.50000   -0.05774
2792.00000   -0.06629
2792.50000   -0.07358
2793.00000   -0.07954
2793.50000   -0.08414
2794.00000   -0.08737
2794.50000   -0.08920
2795.00000   -0.08964
2795.50000   -0.08871
2796.00000   -0.08644
2796.50000   -0.08284
2797.00000   -0.07798
2797.50000   -0.07191
2798.00000   -0.06469
2798.50000   -0.05640
2799.00000   -0.04713
2799.50000   -0.03697
2800.00000   -0.02602
2800.50000   -0.01440
2801.00000   -0.00221
2801.50000    0.01042
2802.00000    0.02338
2802.50000    0.03654
2803.00000    0.04979
2803.50000    0.06299
2804.00000    0.07603
2804.50000    0.08878
2805.00000    0.10113
2805.50000    0.11295
2806.00000    0.12413
2806.50000    0.13454
2807.00000    0.14408
2807.50000    0.15263
2808.00000    0.16009
2808.50000    0.16637
2809.00000    0.17138
2809.50000    0.17507
2810.00000    0.17740
2810.50000    0.17834
2811.00000    0.17791
2811.50000    0.17614
2812.00000    0.17310
2812.50000    0.16886
2813.00000    0.16355
2813.50000    0.15730
2814.00000    0.15024
2814.50000    0.14254
2815.00000    0.13435
2815.50000    0.12582
2816.00000    0.11707
2816.50000    0.10825
2817.00000    0.09944
2817.50000    0.09072
2818.00000    0.08215
2818.50000    0.07376
2819.00000    0.06555
2819.50000    0.05754
2820.00000    0.04970
2820.50000    0.04202
2821.00000    0.03449
2821.50000    0.02708
2822.00000    0.01981
2822.50000    0.01266
2823.00000    0.00567
2823.50000   -0.00114
2824.00000   -0.00773
2824.50000   -0.01408
2825.00000   -0.02013
2825.50000   -0.02586
2826.00000   -0.03124
2826.50000   -0.03627
2827.00000   -0.04094
2827.50000   -0.04529
2828.00000   -0.04933
2828.50000   -0.05313
2829.00000   -0.05673
2829.50000   -0.06019
2830.00000   -0.06357
2830.50000   -0.06691
2831.00000   -0.07025
2831.50000   -0.07361
2832.00000   -0.07698
2832.50000   -0.08034
2833.00000   -0.08365
2833.50000   -0.08684
2834.00000   -0.08984
2834.50000   -0.09257
2835.00000   -0.09492
2835.50000   -0.09680
2836.00000   -0.09811
2836.50000   -0.09878
2837.00000   -0.09874
2837.50000   -0.09793
2838.00000   -0.09631
2838.50000   -0.09388
2839.00000   -0.09063
2839.50000   -0.08660
2840.00000   -0.08182
2840.50000   -0.07635
2841.00000   -0.07027
2841.50000   -0.06366
2842.00000   -0.05661
2842.50000   -0.04924
2843.00000   -0.04164
2843.50000   -0.03395
2844.00000   -0.02626
2844.50000   -0.01869
2845.00000   -0.01136
2845.50000   -0.00436
2846.00000    0.00222
2846.50000    0.00830
2847.00000    0.01382
2847.50000    0.01876
2848.00000    0.02308
2848.50000    0.02680
2849.00000    0.02995
2849.50000    0.03258
2850.00000    0.03476
2850.50000    0.03657
2851.00000    0.03811
2851.50000    0.03949
2852.00000    0.04080
2852.50000    0.04214
2853.00000    0.04360
2853.50000    0.04527
2854.00000    0.04720
2854.50000    0.04943
2855.00000    0.05200
2855.50000    0.05493
2856.00000    0.05820
2856.50000    0.06180
2857.00000    0.06572
2857.50000    0.06994
2858.00000    0.07441
2858.50000    0.07912
2859.00000    0.08403
2859.50000    0.08914
2860.00000    0.09441
2860.50000    0.09983
2861.00000    0.10539
2861.50000    0.11107
2862.00000    0.11687
2862.50000    0.12278
2863.00000    0.12878
2863.50000    0.13488
2864.00000    0.14105
2864.50000    0.14731
2865.00000    0.15366
2865.50000    0.16011
2866.00000    0.16669
2866.50000    0.17343
2867.00000    0.18038
2867.50000    0.18758
2868.00000    0.19509
2868.50000    0.20297
2869.00000    0.21127
2869.50000    0.22004
2870.00000    0.22930
2870.50000    0.23905
2871.00000    0.24927
2871.50000    0.25991
2872.00000    0.27089
2872.50000    0.28207
2873.00000    0.29332
2873.50000    0.30444
2874.00000    0.31523
2874.50000    0.32547
2875.00000    0.33493
2875.50000    0.34339
2876.00000    0.35061
2876.50000    0.35641
2877.00000    0.36061
2877.50000    0.36306
2878.00000    0.36364
2878.50000    0.36230
2879.00000    0.35900
2879.50000    0.35374
2880.00000    0.34656
2880.50000    0.33755
2881.00000    0.32680
2881.50000    0.31444
2882.00000    0.30061
2882.50000    0.28548
2883.00000    0.26921
2883.50000    0.25199
2884.00000    0.23400
2884.50000    0.21542
2885.00000    0.19645
2885.50000    0.17728
2886.00000    0.15807
2886.50000    0.13903
2887.00000    0.12032
2887.50000    0.10210
2888.00000    0.08454
2888.50000    0.06778
2889.00000    0.05193
2889.50000    0.03711
2890.00000    0.02339
2890.50000    0.01084
2891.00000   -0.00052
2891.50000   -0.01067
2892.00000   -0.01965
2892.50000   -0.02748
2893.00000   -0.03425
2893.50000   -0.04002
2894.00000   -0.04491
2894.50000   -0.04901
2895.00000   -0.05244
2895.50000   -0.05531
2896.00000   -0.05773
2896.50000   -0.05980
2897.00000   -0.06160
2897.50000   -0.06323
2898.00000   -0.06472
2898.50000   -0.06615
2899.00000   -0.06754
2899.50000   -0.06892
