1200.50000   -0.07831
1201.00000   -0.08026
1201.50000   -0.08206
1202.00000   -0.08359
1202.50000   -0.08468
1203.00000   -0.08517
1203.50000   -0.08490
1204.00000   -0.08370
1204.50000   -0.08142
1205.00000   -0.07795
1205.50000   -0.07320
1206.00000   -0.06710
1206.50000   -0.05966
1207.00000   -0.05090
1207.50000   -0.04089
1208.00000   -0.02976
1208.50000   -0.01766
1209.00000   -0.00478
1209.50000    0.00864
1210.00000    0.02237
1210.50000    0.03612
1211.00000    0.04964
1211.50000    0.06265
1212.00000    0.07489
1212.50000    0.08611
1213.00000    0.09610
1213.50000    0.10465
1214.00000    0.11164
1214.50000    0.11693
1215.00000    0.12046
1215.50000    0.12220
1216.00000    0.12217
1216.50000    0.12042
1217.00000    0.11707
1217.50000    0.11222
1218.00000    0.10606
1218.50000    0.09876
1219.00000    0.09053
1219.50000    0.08159
1220.00000    0.07215
1220.50000    0.06244
1221.00000    0.05266
1221.50000    0.04301
1222.00000    0.03367
1222.50000    0.02478
1223.00000    0.01649
1223.50000    0.00888
1224.00000    0.00204
1224.50000   -0.00400
1225.00000   -0.00921
1225.50000   -0.01363
1226.00000   -0.01727
1226.50000   -0.02019
1227.00000   -0.02247
1227.50000   -0.02420
1228.00000   -0.02545
1228.50000   -0.02633
1229.00000   -0.02693
1229.50000   -0.02733
1230.00000   -0.02761
1230.50000   -0.02783
1231.00000   -0.02805
1231.50000   -0.02830
1232.00000   -0.02861
1232.50000   -0.02897
1233.00000   -0.02939
1233.50000   -0.02986
1234.00000   -0.03034
1234.50000   -0.03081
1235.00000   -0.03125
1235.50000   -0.03163
1236.00000   -0.03194
1236.50000   -0.03216
1237.00000   -0.03231
1237.50000   -0.03241
1238.00000   -0.03247
1238.50000   -0.03255
1239.00000   -0.03269
1239.50000   -0.03296
1240.00000   -0.03341
1240.50000   -0.03412
1241.00000   -0.03515
1241.50000   -0.03654
1242.00000   -0.03834
1242.50000   -0.04056
1243.00000   -0.04320
1243.50000   -0.04625
1244.00000   -0.04965
1244.50000   -0.05333
1245.00000   -0.05720
1245.50000   -0.06114
1246.00000   -0.06503
1246.50000   -0.06872
1247.00000   -0.07208
1247.50000   -0.07496
1248.00000   -0.07723
1248.50000   -0.07876
1249.00000   -0.07944
1249.50000   -0.07921
1250.00000   -0.07800
1250.50000   -0.07578
1251.00000   -0.07257
1251.50000   -0.06838
1252.00000   -0.06329
1252.50000   -0.05736
1253.00000   -0.05069
1253.50000   -0.04339
1254.00000   -0.03558
1254.50000   -0.02737
1255.00000   -0.01887
1255.50000   -0.01018
1256.00000   -0.00139
1256.50000    0.00743
1257.00000    0.01622
1257.50000    0.02494
1258.00000    0.03356
1258.50000    0.04208
1259.00000    0.05049
1259.50000    0.05878
1260.00000    0.06697
1260.50000    0.07505
1261.00000    0.08300
1261.50000    0.09082
1262.00000    0.09845
1262.50000    0.10584
1263.00000    0.11293
1263.50000    0.11964
1264.00000    0.12585
1264.50000    0.13148
1265.00000    0.13640
1265.50000    0.14050
1266.00000    0.14367
1266.50000    0.14581
1267.00000    0.14685
1267.50000    0.14670
1268.00000    0.14532
1268.50000    0.14270
1269.00000    0.13884
1269.50000    0.13377
1270.00000    0.12753
1270.50000    0.12022
1271.00000    0.11192
1271.50000    0.10274
1272.00000    0.09279
1272.50000    0.08220
1273.00000    0.07110
1273.50000    0.05961
1274.00000    0.04785
1274.50000    0.03593
1275.00000    0.02398
1275.50000    0.01207
1276.00000    0.00031
1276.50000   -0.01122
1277.00000   -0.02244
1277.50000   -0.03328
1278.00000   -0.04366
1278.50000   -0.05351
1279.00000   -0.06274
1279.50000   -0.07128
1280.00000   -0.07905
1280.50000   -0.08596
1281.00000   -0.09192
1281.50000   -0.09686
1282.00000   -0.10068
1282.50000   -0.10333
1283.00000   -0.10472
1283.50000   -0.10483
1284.00000   -0.10361
1284.50000   -0.10107
1285.00000   -0.09721
1285.50000   -0.09207
1286.00000   -0.08574
1286.50000   -0.07829
1287.00000   -0.06986
1287.50000   -0.06058
1288.00000   -0.05063
1288.50000   -0.04017
1289.00000   -0.02940
1289.50000   -0.01853
1290.00000   -0.00774
1290.50000    0.00275
1291.00000    0.01277
1291.50000    0.02213
1292.00000    0.03066
1292.50000    0.03824
1293.00000    0.04473
1293.50000    0.05003
1294.00000    0.05409
1294.50000    0.05684
1295.00000    0.05828
1295.50000    0.05841
1296.00000    0.05726
1296.50000    0.05486
1297.00000    0.05131
1297.50000    0.04667
1298.00000    0.04106
1298.50000    0.03459
1299.00000    0.02738
1299.50000    0.01957
1300.00000    0.01129
1300.50000    0.00269
1301.00000   -0.00609
1301.50000   -0.01491
1302.00000   -0.02364
1302.50000   -0.03214
1303.00000   -0.04029
1303.50000   -0.04798
1304.00000   -0.05511
1304.50000   -0.06159
1305.00000   -0.06735
1305.50000   -0.07232
1306.00000   -0.07648
1306.50000   -0.07979
1307.00000   -0.08224
1307.50000   -0.08383
1308.00000   -0.08458
1308.50000   -0.08452
1309.00000   -0.08369
1309.50000   -0.08213
1310.00000   -0.07990
1310.50000   -0.07705
1311.00000   -0.07366
1311.50000   -0.06977
1312.00000   -0.06545
1312.50000   -0.06076
1313.00000   -0.05573
1313.50000   -0.05042
1314.00000   -0.04487
1314.50000   -0.03909
1315.00000   -0.03310
1315.50000   -0.02692
1316.00000   -0.02054
1316.50000   -0.01394
1317.00000   -0.00710
1317.50000    0.00000
1318.00000    0.00743
1318.50000    0.01523
1319.00000    0.02346
1319.50000    0.03221
1320.00000    0.04154
1320.50000    0.05154
1321.00000    0.06230
1321.50000    0.07390
1322.00000    0.08644
1322.50000    0.09999
1323.00000    0.11463
1323.50000    0.13041
1324.00000    0.14738
1324.50000    0.16556
1325.00000    0.18495
1325.50000    0.20552
1326.00000    0.22721
1326.50000    0.24995
1327.00000    0.27361
1327.50000    0.29804
1328.00000    0.32308
1328.50000    0.34852
1329.00000    0.37414
1329.50000    0.39971
1330.00000    0.42498
1330.50000    0.44970
1331.00000    0.47363
1331.50000    0.49655
1332.00000    0.51825
1332.50000    0.53855
1333.00000    0.55730
1333.50000    0.57440
1334.00000    0.58978
1334.50000    0.60340
1335.00000    0.61529
1335.50000    0.62550
1336.00000    0.63411
1336.50000    0.64127
1337.00000    0.64711
1337.50000    0.65180
1338.00000    0.65553
1338.50000    0.65847
1339.00000    0.66081
1339.50000    0.66272
1340.00000    0.66433
1340.50000    0.66578
1341.00000    0.66716
1341.50000    0.66854
1342.00000    0.66997
1342.50000    0.67146
1343.00000    0.67300
1343.50000    0.67455
1344.00000    0.67607
1344.50000    0.67749
1345.00000    0.67875
1345.50000    0.67978
1346.00000    0.68052
1346.50000    0.68090
1347.00000    0.68089
1347.50000    0.68045
1348.00000    0.67958
1348.50000    0.67828
1349.00000    0.67655
1349.50000    0.67443
1350.00000    0.67194
1350.50000    0.66911
1351.00000    0.66599
1351.50000    0.66260
1352.00000    0.65897
1352.50000    0.65510
1353.00000    0.65099
1353.50000    0.64663
1354.00000    0.64199
1354.50000    0.63702
1355.00000    0.63167
1355.50000    0.62586
1356.00000    0.61952
1356.50000    0.61258
1357.00000    0.60495
1357.50000    0.59657
1358.00000    0.58738
1358.50000    0.57732
1359.00000    0.56635
1359.50000    0.55446
1360.00000    0.54164
1360.50000    0.52791
1361.00000    0.51329
1361.50000    0.49783
1362.00000    0.48159
1362.50000    0.46464
1363.00000    0.44704
1363.50000    0.42889
1364.00000    0.41025
1364.50000    0.39120
1365.00000    0.37184
1365.50000    0.35221
1366.00000    0.33240
1366.50000    0.31245
1367.00000    0.29242
1367.50000    0.27235
1368.00000    0.25229
1368.50000    0.23226
1369.00000    0.21231
1369.50000    0.19247
1370.00000    0.17276
1370.50000    0.15323
1371.00000    0.13391
1371.50000    0.11484
1372.00000    0.09606
1372.50000    0.07761
1373.00000    0.05955
1373.50000    0.04193
1374.00000    0.02480
1374.50000    0.00822
1375.00000   -0.00776
1375.50000   -0.02307
1376.00000   -0.03765
1376.50000   -0.05145
1377.00000   -0.06439
1377.50000   -0.07640
1378.00000   -0.08743
1378.50000   -0.09740
1379.00000   -0.10624
1379.50000   -0.11387
1380.00000   -0.12021
1380.50000   -0.12520
1381.00000   -0.12875
1381.50000   -0.13081
1382.00000   -0.13130
1382.50000   -0.13018
1383.00000   -0.12740
1383.50000   -0.12295
1384.00000   -0.11683
1384.50000   -0.10906
1385.00000   -0.09970
1385.50000   -0.08882
1386.00000   -0.07654
1386.50000   -0.06299
1387.00000   -0.04836
1387.50000   -0.03282
1388.00000   -0.01661
1388.50000    0.00003
1389.00000    0.01685
1389.50000    0.03358
1390.00000    0.04998
1390.50000    0.06577
1391.00000    0.08073
1391.50000    0.09463
1392.00000    0.10727
1392.50000    0.11851
1393.00000    0.12823
1393.50000    0.13633
1394.00000    0.14279
1394.50000    0.14761
1395.00000    0.15083
1395.50000    0.15252
1396.00000    0.15280
1396.50000    0.15179
1397.00000    0.14965
1397.50000    0.14654
1398.00000    0.14263
1398.50000    0.13809
1399.00000    0.13309
1399.50000    0.12778
1400.00000    0.12229
1400.50000    0.11674
1401.00000    0.11125
1401.50000    0.10587
1402.00000    0.10066
1402.50000    0.09568
1403.00000    0.09093
1403.50000    0.08641
1404.00000    0.08213
1404.50000    0.07807
1405.00000    0.07421
1405.50000    0.07052
1406.00000    0.06698
1406.50000    0.06355
1407.00000    0.06022
1407.50000    0.05694
1408.00000    0.05371
1408.50000    0.05048
1409.00000    0.04723
1409.50000    0.04391
1410.00000    0.04049
1410.50000    0.03692
1411.00000    0.03315
1411.50000    0.02912
1412.00000    0.02475
1412.50000    0.01999
1413.00000    0.01477
1413.50000    0.00900
1414.00000    0.00263
1414.50000   -0.00439
1415.00000   -0.01212
1415.50000   -0.02057
1416.00000   -0.02977
1416.50000   -0.03969
1417.00000   -0.05030
1417.50000   -0.06153
1418.00000   -0.07331
1418.50000   -0.08551
1419.00000   -0.09801
1419.50000   -0.11064
1420.00000   -0.12323
1420.50000   -0.13560
1421.00000   -0.14754
1421.50000   -0.15886
1422.00000   -0.16937
1422.50000   -0.17887
1423.00000   -0.18719
1423.50000   -0.19417
1424.00000   -0.19967
1424.50000   -0.20358
1425.00000   -0.20582
1425.50000   -0.20633
1426.00000   -0.20510
1426.50000   -0.20212
1427.00000   -0.19744
1427.50000   -0.19114
1428.00000   -0.18332
1428.50000   -0.17410
1429.00000   -0.16364
1429.50000   -0.15211
1430.00000   -0.13972
1430.50000   -0.12666
1431.00000   -0.11316
1431.50000   -0.09943
1432.00000   -0.08569
1432.50000   -0.07216
1433.00000   -0.05903
1433.50000   -0.04649
1434.00000   -0.03469
1434.50000   -0.02378
1435.00000   -0.01386
1435.50000   -0.00500
1436.00000    0.00277
1436.50000    0.00945
1437.00000    0.01506
1437.50000    0.01967
1438.00000    0.02339
1438.50000    0.02633
1439.00000    0.02865
1439.50000    0.03049
1440.00000    0.03203
1440.50000    0.03342
1441.00000    0.03482
1441.50000    0.03637
1442.00000    0.03816
1442.50000    0.04030
1443.00000    0.04281
1443.50000    0.04572
1444.00000    0.04900
1444.50000    0.05257
1445.00000    0.05634
1445.50000    0.06019
1446.00000    0.06396
1446.50000    0.06749
1447.00000    0.07062
1447.50000    0.07317
1448.00000    0.07500
1448.50000    0.07596
1449.00000    0.07597
1449.50000    0.07495
1450.00000    0.07289
1450.50000    0.06980
1451.00000    0.06576
1451.50000    0.06087
1452.00000    0.05529
1452.50000    0.04920
1453.00000    0.04280
1453.50000    0.03633
1454.00000    0.03001
1454.50000    0.02406
1455.00000    0.01871
1455.50000    0.01414
1456.00000    0.01052
1456.50000    0.00797
1457.00000    0.00656
1457.50000    0.00635
1458.00000    0.00731
1458.50000    0.00941
1459.00000    0.01254
1459.50000    0.01657
1460.00000    0.02135
1460.50000    0.02668
1461.00000    0.03239
1461.50000    0.03825
1462.00000    0.04408
1462.50000    0.04969
1463.00000    0.05489
1463.50000    0.05954
1464.00000    0.06351
1464.50000    0.06669
1465.00000    0.06902
1465.50000    0.07044
1466.00000    0.07094
1466.50000    0.07053
1467.00000    0.06924
1467.50000    0.06710
1468.00000    0.06419
1468.50000    0.06057
1469.00000    0.05632
1469.50000    0.05153
1470.00000    0.04629
1470.50000    0.04068
1471.00000    0.03480
1471.50000    0.02872
1472.00000    0.02253
1472.50000    0.01632
1473.00000    0.01017
1473.50000    0.00416
1474.00000   -0.00163
1474.50000   -0.00713
1475.00000   -0.01225
1475.50000   -0.01693
1476.00000   -0.02109
1476.50000   -0.02467
1477.00000   -0.02762
1477.50000   -0.02989
1478.00000   -0.03143
1478.50000   -0.03224
1479.00000   -0.03228
1479.50000   -0.03158
1480.00000   -0.03014
1480.50000   -0.02801
1481.00000   -0.02524
1481.50000   -0.02189
1482.00000   -0.01804
1482.50000   -0.01378
1483.00000   -0.00922
1483.50000   -0.00445
1484.00000    0.00041
1484.50000    0.00527
1485.00000    0.00999
1485.50000    0.01450
1486.00000    0.01868
1486.50000    0.02245
1487.00000    0.02573
1487.50000    0.02845
1488.00000    0.03055
1488.50000    0.03200
1489.00000    0.03275
1489.50000    0.03281
1490.00000    0.03215
1490.50000    0.03080
1491.00000    0.02876
1491.50000    0.02608
1492.00000    0.02279
1492.50000    0.01895
1493.00000    0.01463
1493.50000    0.00988
1494.00000    0.00480
1494.50000   -0.00054
1495.00000   -0.00605
1495.50000   -0.01163
1496.00000   -0.01720
1496.50000   -0.02265
1497.00000   -0.02790
1497.50000   -0.03285
1498.00000   -0.03740
1498.50000   -0.04148
1499.00000   -0.04500
1499.50000   -0.04788
1500.00000   -0.05005
1500.50000   -0.05143
1501.00000   -0.05198
1501.50000   -0.05163
1502.00000   -0.05032
1502.50000   -0.04803
1503.00000   -0.04470
1503.50000   -0.04031
1504.00000   -0.03485
1504.50000   -0.02829
1505.00000   -0.02065
1505.50000   -0.01194
1506.00000   -0.00219
1506.50000    0.00855
1507.00000    0.02020
1507.50000    0.03267
1508.00000    0.04584
1508.50000    0.05958
1509.00000    0.07372
1509.50000    0.08807
1510.00000    0.10244
1510.50000    0.11659
1511.00000    0.13032
1511.50000    0.14337
1512.00000    0.15552
1512.50000    0.16655
1513.00000    0.17624
1513.50000    0.18441
1514.00000    0.19091
1514.50000    0.19560
1515.00000    0.19840
1515.50000    0.19926
1516.00000    0.19817
1516.50000    0.19517
1517.00000    0.19033
1517.50000    0.18375
1518.00000    0.17555
1518.50000    0.16590
1519.00000    0.15495
1519.50000    0.14289
1520.00000    0.12988
1520.50000    0.11610
1521.00000    0.10171
1521.50000    0.08683
1522.00000    0.07160
1522.50000    0.05610
1523.00000    0.04044
1523.50000    0.02465
1524.00000    0.00880
1524.50000   -0.00707
1525.00000   -0.02293
1525.50000   -0.03875
1526.00000   -0.05446
1526.50000   -0.07003
1527.00000   -0.08537
1527.50000   -0.10039
1528.00000   -0.11500
1528.50000   -0.12905
1529.00000   -0.14241
1529.50000   -0.15493
1530.00000   -0.16644
1530.50000   -0.17678
1531.00000   -0.18578
1531.50000   -0.19331
1532.00000   -0.19924
1532.50000   -0.20347
1533.00000   -0.20591
1533.50000   -0.20654
1534.00000   -0.20534
1534.50000   -0.20236
1535.00000   -0.19765
1535.50000   -0.19132
1536.00000   -0.18347
1536.50000   -0.17427
1537.00000   -0.16385
1537.50000   -0.15241
1538.00000   -0.14009
1538.50000   -0.12708
1539.00000   -0.11354
1539.50000   -0.09962
1540.00000   -0.08546
1540.50000   -0.07118
1541.00000   -0.05690
1541.50000   -0.04270
1542.00000   -0.02869
1542.50000   -0.01493
1543.00000   -0.00150
1543.50000    0.01153
1544.00000    0.02409
1544.50000    0.03611
1545.00000    0.04749
1545.50000    0.05817
1546.00000    0.06803
1546.50000    0.07699
1547.00000    0.08493
1547.50000    0.09178
1548.00000    0.09743
1548.50000    0.10182
1549.00000    0.10487
1549.50000    0.10655
1550.00000    0.10684
1550.50000    0.10577
1551.00000    0.10338
1551.50000    0.09976
1552.00000    0.09504
1552.50000    0.08937
1553.00000    0.08294
1553.50000    0.07596
1554.00000    0.06869
1554.50000    0.06137
1555.00000    0.05428
1555.50000    0.04769
1556.00000    0.04188
1556.50000    0.03710
1557.00000    0.03359
1557.50000    0.03159
1558.00000    0.03130
1558.50000    0.03289
1559.00000    0.03650
1559.50000    0.04227
1560.00000    0.05030
1560.50000    0.06065
1561.00000    0.07340
1561.50000    0.08859
1562.00000    0.10626
1562.50000    0.12645
1563.00000    0.14921
1563.50000    0.17460
1564.00000    0.20266
1564.50000    0.23349
1565.00000    0.26716
1565.50000    0.30380
1566.00000    0.34352
1566.50000    0.38644
1567.00000    0.43270
1567.50000    0.48243
1568.00000    0.53575
1568.50000    0.59276
1569.00000    0.65355
1569.50000    0.71817
1570.00000    0.78665
1570.50000    0.85896
1571.00000    0.93504
1571.50000    1.01479
1572.00000    1.09807
1572.50000    1.18467
1573.00000    1.27437
1573.50000    1.36691
1574.00000    1.46199
1574.50000    1.55931
1575.00000    1.65852
1575.50000    1.75930
1576.00000    1.86129
1576.50000    1.96416
1577.00000    2.06757
1577.50000    2.17120
1578.00000    2.27473
1578.50000    2.37785
1579.00000    2.48025
1579.50000    2.58163
1580.00000    2.68167
1580.50000    2.78004
1581.00000    2.87640
1581.50000    2.97038
1582.00000    3.06159
1582.50000    3.14959
1583.00000    3.23392
1583.50000    3.31409
1584.00000    3.38957
1584.50000    3.45980
1585.00000    3.52420
1585.50000    3.58220
1586.00000    3.63321
1586.50000    3.67665
1587.00000    3.71200
1587.50000    3.73874
1588.00000    3.75645
1588.50000    3.76474
1589.00000    3.76334
1589.50000    3.75204
1590.00000    3.73076
1590.50000    3.69951
1591.00000    3.65840
1591.50000    3.60765
1592.00000    3.54761
1592.50000    3.47870
1593.00000    3.40144
1593.50000    3.31645
1594.00000    3.22442
1594.50000    3.12608
1595.00000    3.02224
1595.50000    2.91373
1596.00000    2.80142
1596.50000    2.68619
1597.00000    2.56890
1597.50000    2.45042
1598.00000    2.33158
1598.50000    2.21320
1599.00000    2.09602
1599.50000    1.98077
1600.00000    1.86809
1600.50000    1.75857
1601.00000    1.65274
1601.50000    1.55104
1602.00000    1.45385
1602.50000    1.36147
1603.00000    1.27412
1603.50000    1.19198
1604.00000    1.11512
1604.50000    1.04357
1605.00000    0.97729
1605.50000    0.91618
1606.00000    0.86011
1606.50000    0.80888
1607.00000    0.76227
1607.50000    0.72003
1608.00000    0.68189
1608.50000    0.64757
1609.00000    0.61676
1609.50000    0.58918
1610.00000    0.56455
1610.50000    0.54257
1611.00000    0.52300
1611.50000    0.50557
1612.00000    0.49008
1612.50000    0.47629
1613.00000    0.46404
1613.50000    0.45315
1614.00000    0.44345
1614.50000    0.43482
1615.00000    0.42712
1615.50000    0.42022
1616.00000    0.41401
1616.50000    0.40837
1617.00000    0.40318
1617.50000    0.39832
1618.00000    0.39365
1618.50000    0.38904
1619.00000    0.38436
1619.50000    0.37943
1620.00000    0.37413
1620.50000    0.36828
1621.00000    0.36174
1621.50000    0.35435
1622.00000    0.34599
1622.50000    0.33652
1623.00000    0.32586
1623.50000    0.31393
1624.00000    0.30070
1624.50000    0.28617
1625.00000    0.27037
1625.50000    0.25340
1626.00000    0.23538
1626.50000    0.21649
1627.00000    0.19694
1627.50000    0.17698
1628.00000    0.15687
1628.50000    0.13693
1629.00000    0.11746
1629.50000    0.09877
1630.00000    0.08116
1630.50000    0.06492
1631.00000    0.05028
1631.50000    0.03747
1632.00000    0.02662
1632.50000    0.01785
1633.00000    0.01119
1633.50000    0.00661
1634.00000    0.00401
1634.50000    0.00324
1635.00000    0.00409
1635.50000    0.00629
1636.00000    0.00956
1636.50000    0.01355
1637.00000    0.01795
1637.50000    0.02242
1638.00000    0.02664
1638.50000    0.03031
1639.00000    0.03317
1639.50000    0.03502
1640.00000    0.03568
1640.50000    0.03504
1641.00000    0.03305
1641.50000    0.02970
1642.00000    0.02505
1642.50000    0.01919
1643.00000    0.01224
1643.50000    0.00438
1644.00000   -0.00421
1644.50000   -0.01333
1645.00000   -0.02278
1645.50000   -0.03235
1646.00000   -0.04184
1646.50000   -0.05108
1647.00000   -0.05990
1647.50000   -0.06816
1648.00000   -0.07574
1648.50000   -0.08254
1649.00000   -0.08847
1649.50000   -0.09348
1650.00000   -0.09751
1650.50000   -0.10053
1651.00000   -0.10252
1651.50000   -0.10348
1652.00000   -0.10339
1652.50000   -0.10227
1653.00000   -0.10014
1653.50000   -0.09703
1654.00000   -0.09299
1654.50000   -0.08806
1655.00000   -0.08232
1655.50000   -0.07585
1656.00000   -0.06874
1656.50000   -0.06111
1657.00000   -0.05309
1657.50000   -0.04480
1658.00000   -0.03639
1658.50000   -0.02801
1659.00000   -0.01980
1659.50000   -0.01192
1660.00000   -0.00450
1660.50000    0.00234
1661.00000    0.00849
1661.50000    0.01386
1662.00000    0.01838
1662.50000    0.02200
1663.00000    0.02471
1663.50000    0.02650
1664.00000    0.02740
1664.50000    0.02744
1665.00000    0.02668
1665.50000    0.02520
1666.00000    0.02308
1666.50000    0.02040
1667.00000    0.01726
1667.50000    0.01375
1668.00000    0.00997
1668.50000    0.00600
1669.00000    0.00193
1669.50000   -0.00215
1670.00000   -0.00617
1670.50000   -0.01006
1671.00000   -0.01376
1671.50000   -0.01720
1672.00000   -0.02032
1672.50000   -0.02307
1673.00000   -0.02540
1673.50000   -0.02727
1674.00000   -0.02861
1674.50000   -0.02940
1675.00000   -0.02960
1675.50000   -0.02916
1676.00000   -0.02807
1676.50000   -0.02630
1677.00000   -0.02383
1677.50000   -0.02066
1678.00000   -0.01679
1678.50000   -0.01224
1679.00000   -0.00702
1679.50000   -0.00117
1680.00000    0.00528
1680.50000    0.01225
1681.00000    0.01969
1681.50000    0.02752
1682.00000    0.03565
1682.50000    0.04398
1683.00000    0.05238
1683.50000    0.06074
1684.00000    0.06892
1684.50000    0.07676
1685.00000    0.08413
1685.50000    0.09084
1686.00000    0.09675
1686.50000    0.10168
1687.00000    0.10547
1687.50000    0.10798
1688.00000    0.10906
1688.50000    0.10860
1689.00000    0.10650
1689.50000    0.10270
1690.00000    0.09717
1690.50000    0.08993
1691.00000    0.08102
1691.50000    0.07055
1692.00000    0.05865
1692.50000    0.04551
1693.00000    0.03135
1693.50000    0.01643
1694.00000    0.00104
1694.50000   -0.01451
1695.00000   -0.02991
1695.50000   -0.04485
1696.00000   -0.05900
1696.50000   -0.07207
1697.00000   -0.08382
1697.50000   -0.09401
1698.00000   -0.10248
1698.50000   -0.10909
1699.00000   -0.11378
1699.50000   -0.11653
1700.00000   -0.11738
1700.50000   -0.11641
1701.00000   -0.11376
1701.50000   -0.10959
1702.00000   -0.10409
1702.50000   -0.09748
1703.00000   -0.08996
1703.50000   -0.08176
1704.00000   -0.07308
1704.50000   -0.06409
1705.00000   -0.05497
1705.50000   -0.04582
1706.00000   -0.03674
1706.50000   -0.02780
1707.00000   -0.01900
1707.50000   -0.01033
1708.00000   -0.00177
1708.50000    0.00674
1709.00000    0.01529
1709.50000    0.02395
1710.00000    0.03280
1710.50000    0.04191
1711.00000    0.05136
1711.50000    0.06117
1712.00000    0.07138
1712.50000    0.08198
1713.00000    0.09296
1713.50000    0.10428
1714.00000    0.11586
1714.50000    0.12764
1715.00000    0.13952
1715.50000    0.15139
1716.00000    0.16314
1716.50000    0.17467
1717.00000    0.18586
1717.50000    0.19661
1718.00000    0.20681
1718.50000    0.21638
1719.00000    0.22522
1719.50000    0.23325
1720.00000    0.24039
1720.50000    0.24659
1721.00000    0.25177
1721.50000    0.25587
1722.00000    0.25883
1722.50000    0.26059
1723.00000    0.26108
1723.50000    0.26026
1724.00000    0.25806
1724.50000    0.25444
1725.00000    0.24937
1725.50000    0.24281
1726.00000    0.23477
1726.50000    0.22524
1727.00000    0.21427
1727.50000    0.20190
1728.00000    0.18823
1728.50000    0.17335
1729.00000    0.15739
1729.50000    0.14052
1730.00000    0.12291
1730.50000    0.10475
1731.00000    0.08623
1731.50000    0.06758
1732.00000    0.04899
1732.50000    0.03068
1733.00000    0.01285
1733.50000   -0.00432
1734.00000   -0.02066
1734.50000   -0.03602
1735.00000   -0.05028
1735.50000   -0.06332
1736.00000   -0.07506
1736.50000   -0.08546
1737.00000   -0.09445
1737.50000   -0.10202
1738.00000   -0.10816
1738.50000   -0.11286
1739.00000   -0.11615
1739.50000   -0.11803
1740.00000   -0.11853
1740.50000   -0.11766
1741.00000   -0.11547
1741.50000   -0.11197
1742.00000   -0.10721
1742.50000   -0.10123
1743.00000   -0.09407
1743.50000   -0.08579
1744.00000   -0.07647
1744.50000   -0.06617
1745.00000   -0.05501
1745.50000   -0.04308
1746.00000   -0.03052
1746.50000   -0.01746
1747.00000   -0.00405
1747.50000    0.00952
1748.00000    0.02309
1748.50000    0.03647
1749.00000    0.04947
1749.50000    0.06189
1750.00000    0.07355
1750.50000    0.08426
1751.00000    0.09384
1751.50000    0.10213
1752.00000    0.10898
1752.50000    0.11427
1753.00000    0.11788
1753.50000    0.11973
1754.00000    0.11978
1754.50000    0.11798
1755.00000    0.11435
1755.50000    0.10891
1756.00000    0.10174
1756.50000    0.09294
1757.00000    0.08263
1757.50000    0.07098
1758.00000    0.05818
1758.50000    0.04445
1759.00000    0.03002
1759.50000    0.01515
1760.00000    0.00010
1760.50000   -0.01485
1761.00000   -0.02944
1761.50000   -0.04341
1762.00000   -0.05653
1762.50000   -0.06858
1763.00000   -0.07938
1763.50000   -0.08879
1764.00000   -0.09672
1764.50000   -0.10309
1765.00000   -0.10791
1765.50000   -0.11120
1766.00000   -0.11304
1766.50000   -0.11353
1767.00000   -0.11281
1767.50000   -0.11104
1768.00000   -0.10838
1768.50000   -0.10499
1769.00000   -0.10102
1769.50000   -0.09662
1770.00000   -0.09189
1770.50000   -0.08692
1771.00000   -0.08175
1771.50000   -0.07639
1772.00000   -0.07083
1772.50000   -0.06500
1773.00000   -0.05884
1773.50000   -0.05225
1774.00000   -0.04514
1774.50000   -0.03739
1775.00000   -0.02892
1775.50000   -0.01966
1776.00000   -0.00958
1776.50000    0.00132
1777.00000    0.01300
1777.50000    0.02537
1778.00000    0.03829
1778.50000    0.05160
1779.00000    0.06506
1779.50000    0.07844
1780.00000    0.09146
1780.50000    0.10385
1781.00000    0.11531
1781.50000    0.12557
1782.00000    0.13440
1782.50000    0.14158
1783.00000    0.14694
1783.50000    0.15034
1784.00000    0.15172
1784.50000    0.15107
1785.00000    0.14841
1785.50000    0.14383
1786.00000    0.13747
1786.50000    0.12950
1787.00000    0.12013
1787.50000    0.10959
1788.00000    0.09812
1788.50000    0.08600
1789.00000    0.07346
1789.50000    0.06078
1790.00000    0.04818
1790.50000    0.03590
1791.00000    0.02413
1791.50000    0.01305
1792.00000    0.00283
1792.50000   -0.00640
1793.00000   -0.01453
1793.50000   -0.02148
1794.00000   -0.02718
1794.50000   -0.03157
1795.00000   -0.03463
1795.50000   -0.03634
1796.00000   -0.03671
1796.50000   -0.03575
1797.00000   -0.03351
1797.50000   -0.03005
1798.00000   -0.02543
1798.50000   -0.01977
1799.00000   -0.01318
1799.50000   -0.00581
1800.00000    0.00218
1800.50000    0.01061
1801.00000    0.01927
1801.50000    0.02795
1802.00000    0.03642
1802.50000    0.04444
1803.00000    0.05178
1803.50000    0.05822
1804.00000    0.06354
1804.50000    0.06756
1805.00000    0.07011
1805.50000    0.07106
1806.00000    0.07031
1806.50000    0.06782
1807.00000    0.06357
1807.50000    0.05761
1808.00000    0.05002
1808.50000    0.04091
1809.00000    0.03046
1809.50000    0.01885
1810.00000    0.00632
1810.50000   -0.00691
1811.00000   -0.02058
1811.50000   -0.03443
1812.00000   -0.04823
1812.50000   -0.06172
1813.00000   -0.07468
1813.50000   -0.08692
1814.00000   -0.09826
1814.50000   -0.10855
1815.00000   -0.11767
1815.50000   -0.12552
1816.00000   -0.13203
1816.50000   -0.13716
1817.00000   -0.14088
1817.50000   -0.14318
1818.00000   -0.14406
1818.50000   -0.14352
1819.00000   -0.14160
1819.50000   -0.13831
1820.00000   -0.13368
1820.50000   -0.12773
1821.00000   -0.12049
1821.50000   -0.11201
1822.00000   -0.10232
1822.50000   -0.09147
1823.00000   -0.07951
1823.50000   -0.06652
1824.00000   -0.05257
1824.50000   -0.03776
1825.00000   -0.02219
1825.50000   -0.00600
1826.00000    0.01070
1826.50000    0.02774
1827.00000    0.04500
1827.50000    0.06230
1828.00000    0.07952
1828.50000    0.09649
1829.00000    0.11309
1829.50000    0.12919
1830.00000    0.14470
1830.50000    0.15953
1831.00000    0.17361
1831.50000    0.18691
1832.00000    0.19939
1832.50000    0.21105
1833.00000    0.22189
1833.50000    0.23195
1834.00000    0.24125
1834.50000    0.24982
1835.00000    0.25771
1835.50000    0.26495
1836.00000    0.27158
1836.50000    0.27761
1837.00000    0.28306
1837.50000    0.28794
1838.00000    0.29224
1838.50000    0.29594
1839.00000    0.29901
1839.50000    0.30141
1840.00000    0.30309
1840.50000    0.30400
1841.00000    0.30408
1841.50000    0.30327
1842.00000    0.30150
1842.50000    0.29871
1843.00000    0.29486
1843.50000    0.28990
1844.00000    0.28378
1844.50000    0.27648
1845.00000    0.26799
1845.50000    0.25833
1846.00000    0.24753
1846.50000    0.23563
1847.00000    0.22271
1847.50000    0.20890
1848.00000    0.19430
1848.50000    0.17910
1849.00000    0.16346
1849.50000    0.14760
1850.00000    0.13175
1850.50000    0.11613
1851.00000    0.10099
1851.50000    0.08656
1852.00000    0.07308
1852.50000    0.06076
1853.00000    0.04977
1853.50000    0.04026
1854.00000    0.03233
1854.50000    0.02602
1855.00000    0.02133
1855.50000    0.01819
1856.00000    0.01649
1856.50000    0.01604
1857.00000    0.01663
1857.50000    0.01800
1858.00000    0.01984
1858.50000    0.02184
1859.00000    0.02369
1859.50000    0.02505
1860.00000    0.02565
1860.50000    0.02522
1861.00000    0.02354
1861.50000    0.02044
1862.00000    0.01581
1862.50000    0.00961
1863.00000    0.00186
1863.50000   -0.00735
1864.00000   -0.01787
1864.50000   -0.02950
1865.00000   -0.04198
1865.50000   -0.05501
1866.00000   -0.06827
1866.50000   -0.08140
1867.00000   -0.09405
1867.50000   -0.10586
1868.00000   -0.11648
1868.50000   -0.12558
1869.00000   -0.13287
1869.50000   -0.13808
1870.00000   -0.14100
1870.50000   -0.14147
1871.00000   -0.13935
1871.50000   -0.13458
1872.00000   -0.12716
1872.50000   -0.11714
1873.00000   -0.10461
1873.50000   -0.08973
1874.00000   -0.07270
1874.50000   -0.05377
1875.00000   -0.03323
1875.50000   -0.01140
1876.00000    0.01136
1876.50000    0.03469
1877.00000    0.05820
1877.50000    0.08152
1878.00000    0.10427
1878.50000    0.12608
1879.00000    0.14663
1879.50000    0.16560
1880.00000    0.18274
1880.50000    0.19782
1881.00000    0.21066
1881.50000    0.22114
1882.00000    0.22921
1882.50000    0.23483
1883.00000    0.23803
1883.50000    0.23890
1884.00000    0.23754
1884.50000    0.23411
1885.00000    0.22878
1885.50000    0.22174
1886.00000    0.21321
1886.50000    0.20340
1887.00000    0.19252
1887.50000    0.18078
1888.00000    0.16839
1888.50000    0.15554
1889.00000    0.14240
1889.50000    0.12914
1890.00000    0.11590
1890.50000    0.10283
1891.00000    0.09004
1891.50000    0.07763
1892.00000    0.06572
1892.50000    0.05438
1893.00000    0.04368
1893.50000    0.03368
1894.00000    0.02444
1894.50000    0.01597
1895.00000    0.00831
1895.50000    0.00143
1896.00000   -0.00468
1896.50000   -0.01007
1897.00000   -0.01479
1897.50000   -0.01893
1898.00000   -0.02258
1898.50000   -0.02585
1899.00000   -0.02883
1899.50000   -0.03164
1900.00000   -0.03439
1900.50000   -0.03716
1901.00000   -0.04003
1901.50000   -0.04305
1902.00000   -0.04623
1902.50000   -0.04957
1903.00000   -0.05303
1903.50000   -0.05653
1904.00000   -0.05998
1904.50000   -0.06324
1905.00000   -0.06618
1905.50000   -0.06863
1906.00000   -0.07045
1906.50000   -0.07147
1907.00000   -0.07157
1907.50000   -0.07062
1908.00000   -0.06856
1908.50000   -0.06533
1909.00000   -0.06094
1909.50000   -0.05542
1910.00000   -0.04887
1910.50000   -0.04141
1911.00000   -0.03320
1911.50000   -0.02442
1912.00000   -0.01528
1912.50000   -0.00600
1913.00000    0.00320
1913.50000    0.01211
1914.00000    0.02054
1914.50000    0.02832
1915.00000    0.03532
1915.50000    0.04143
1916.00000    0.04658
1916.50000    0.05076
1917.00000    0.05397
1917.50000    0.05626
1918.00000    0.05770
1918.50000    0.05839
1919.00000    0.05844
1919.50000    0.05798
1920.00000    0.05714
1920.50000    0.05604
1921.00000    0.05478
1921.50000    0.05348
1922.00000    0.05220
1922.50000    0.05100
1923.00000    0.04993
1923.50000    0.04898
1924.00000    0.04816
1924.50000    0.04743
1925.00000    0.04675
1925.50000    0.04608
1926.00000    0.04535
1926.50000    0.04451
1927.00000    0.04351
1927.50000    0.04229
1928.00000    0.04084
1928.50000    0.03913
1929.00000    0.03716
1929.50000    0.03494
1930.00000    0.03250
1930.50000    0.02989
1931.00000    0.02716
1931.50000    0.02436
1932.00000    0.02156
1932.50000    0.01882
1933.00000    0.01619
1933.50000    0.01372
1934.00000    0.01143
1934.50000    0.00934
1935.00000    0.00745
1935.50000    0.00573
1936.00000    0.00416
1936.50000    0.00268
1937.00000    0.00123
1937.50000   -0.00026
1938.00000   -0.00185
1938.50000   -0.00360
1939.00000   -0.00558
1939.50000   -0.00780
1940.00000   -0.01028
1940.50000   -0.01301
1941.00000   -0.01595
1941.50000   -0.01903
1942.00000   -0.02215
1942.50000   -0.02517
1943.00000   -0.02797
1943.50000   -0.03038
1944.00000   -0.03223
1944.50000   -0.03336
1945.00000   -0.03362
1945.50000   -0.03287
1946.00000   -0.03102
1946.50000   -0.02799
1947.00000   -0.02377
1947.50000   -0.01837
1948.00000   -0.01187
1948.50000   -0.00439
1949.00000    0.00390
1949.50000    0.01282
1950.00000    0.02211
1950.50000    0.03153
1951.00000    0.04081
1951.50000    0.04967
1952.00000    0.05786
1952.50000    0.06512
1953.00000    0.07125
1953.50000    0.07604
1954.00000    0.07936
1954.50000    0.08108
1955.00000    0.08116
1955.50000    0.07955
1956.00000    0.07628
1956.50000    0.07139
1957.00000    0.06496
1957.50000    0.05710
1958.00000    0.04794
1958.50000    0.03763
1959.00000    0.02632
1959.50000    0.01417
1960.00000    0.00137
1960.50000   -0.01191
1961.00000   -0.02549
1961.50000   -0.03918
1962.00000   -0.05281
1962.50000   -0.06619
1963.00000   -0.07911
1963.50000   -0.09140
1964.00000   -0.10285
1964.50000   -0.11329
1965.00000   -0.12252
1965.50000   -0.13037
1966.00000   -0.13667
1966.50000   -0.14130
1967.00000   -0.14413
1967.50000   -0.14509
1968.00000   -0.14411
1968.50000   -0.14121
1969.00000   -0.13640
1969.50000   -0.12978
1970.00000   -0.12145
1970.50000   -0.11158
1971.00000   -0.10037
1971.50000   -0.08803
1972.00000   -0.07481
1972.50000   -0.06097
1973.00000   -0.04678
1973.50000   -0.03251
1974.00000   -0.01841
1974.50000   -0.00472
1975.00000    0.00833
1975.50000    0.02055
1976.00000    0.03177
1976.50000    0.04185
1977.00000    0.05070
1977.50000    0.05821
1978.00000    0.06436
1978.50000    0.06910
1979.00000    0.07243
1979.50000    0.07436
1980.00000    0.07493
1980.50000    0.07418
1981.00000    0.07215
1981.50000    0.06893
1982.00000    0.06458
1982.50000    0.05921
1983.00000    0.05290
1983.50000    0.04579
1984.00000    0.03798
1984.50000    0.02962
1985.00000    0.02086
1985.50000    0.01186
1986.00000    0.00278
1986.50000   -0.00621
1987.00000   -0.01493
1987.50000   -0.02321
1988.00000   -0.03091
1988.50000   -0.03788
1989.00000   -0.04399
1989.50000   -0.04914
1990.00000   -0.05326
1990.50000   -0.05629
1991.00000   -0.05822
1991.50000   -0.05905
1992.00000   -0.05880
1992.50000   -0.05755
1993.00000   -0.05535
1993.50000   -0.05230
1994.00000   -0.04850
1994.50000   -0.04406
1995.00000   -0.03907
1995.50000   -0.03364
1996.00000   -0.02787
1996.50000   -0.02184
1997.00000   -0.01565
1997.50000   -0.00935
1998.00000   -0.00302
1998.50000    0.00329
1999.00000    0.00952
1999.50000    0.01564
2000.00000    0.02158
2000.50000    0.02730
2001.00000    0.03276
2001.50000    0.03789
2002.00000    0.04264
2002.50000    0.04695
2003.00000    0.05076
2003.50000    0.05401
2004.00000    0.05666
2004.50000    0.05866
2005.00000    0.05999
2005.50000    0.06062
2006.00000    0.06056
2006.50000    0.05982
2007.00000    0.05845
2007.50000    0.05651
2008.00000    0.05407
2008.50000    0.05124
2009.00000    0.04811
2009.50000    0.04481
2010.00000    0.04146
2010.50000    0.03818
2011.00000    0.03509
2011.50000    0.03232
2012.00000    0.02994
2012.50000    0.02806
2013.00000    0.02673
2013.50000    0.02600
2014.00000    0.02590
2014.50000    0.02642
2015.00000    0.02757
2015.50000    0.02929
2016.00000    0.03155
2016.50000    0.03427
2017.00000    0.03738
2017.50000    0.04081
2018.00000    0.04444
2018.50000    0.04820
2019.00000    0.05198
2019.50000    0.05569
2020.00000    0.05923
2020.50000    0.06251
2021.00000    0.06545
2021.50000    0.06797
2022.00000    0.07000
2022.50000    0.07147
2023.00000    0.07233
2023.50000    0.07253
2024.00000    0.07205
2024.50000    0.07085
2025.00000    0.06892
2025.50000    0.06628
2026.00000    0.06291
2026.50000    0.05887
2027.00000    0.05416
2027.50000    0.04886
2028.00000    0.04300
2028.50000    0.03667
2029.00000    0.02993
2029.50000    0.02287
2030.00000    0.01557
2030.50000    0.00813
2031.00000    0.00063
2031.50000   -0.00682
2032.00000   -0.01415
2032.50000   -0.02127
2033.00000   -0.02810
2033.50000   -0.03457
2034.00000   -0.04062
2034.50000   -0.04619
2035.00000   -0.05124
2035.50000   -0.05573
2036.00000   -0.05965
2036.50000   -0.06297
2037.00000   -0.06571
2037.50000   -0.06786
2038.00000   -0.06946
2038.50000   -0.07052
2039.00000   -0.07110
2039.50000   -0.07123
2040.00000   -0.07096
2040.50000   -0.07037
2041.00000   -0.06952
2041.50000   -0.06848
2042.00000   -0.06733
2042.50000   -0.06613
2043.00000   -0.06497
2043.50000   -0.06393
2044.00000   -0.06307
2044.50000   -0.06245
2045.00000   -0.06215
2045.50000   -0.06220
2046.00000   -0.06266
2046.50000   -0.06353
2047.00000   -0.06486
2047.50000   -0.06662
2048.00000   -0.06882
2048.50000   -0.07141
2049.00000   -0.07436
2049.50000   -0.07760
2050.00000   -0.08106
2050.50000   -0.08465
2051.00000   -0.08825
2051.50000   -0.09177
2052.00000   -0.09508
2052.50000   -0.09804
2053.00000   -0.10053
2053.50000   -0.10242
2054.00000   -0.10357
2054.50000   -0.10388
2055.00000   -0.10323
2055.50000   -0.10153
2056.00000   -0.09870
2056.50000   -0.09470
2057.00000   -0.08950
2057.50000   -0.08309
2058.00000   -0.07551
2058.50000   -0.06681
2059.00000   -0.05707
2059.50000   -0.04641
2060.00000   -0.03494
2060.50000   -0.02284
2061.00000   -0.01026
2061.50000    0.00262
2062.00000    0.01560
2062.50000    0.02849
2063.00000    0.04112
2063.50000    0.05331
2064.00000    0.06488
2064.50000    0.07569
2065.00000    0.08562
2065.50000    0.09455
2066.00000    0.10240
2066.50000    0.10910
2067.00000    0.11463
2067.50000    0.11895
2068.00000    0.12208
2068.50000    0.12403
2069.00000    0.12482
2069.50000    0.12450
2070.00000    0.12313
2070.50000    0.12075
2071.00000    0.11742
2071.50000    0.11319
2072.00000    0.10814
2072.50000    0.10230
2073.00000    0.09574
2073.50000    0.08851
2074.00000    0.08067
2074.50000    0.07227
2075.00000    0.06337
2075.50000    0.05402
2076.00000    0.04431
2076.50000    0.03430
2077.00000    0.02407
2077.50000    0.01372
2078.00000    0.00332
2078.50000   -0.00700
2079.00000   -0.01715
2079.50000   -0.02703
2080.00000   -0.03651
2080.50000   -0.04549
2081.00000   -0.05386
2081.50000   -0.06152
2082.00000   -0.06837
2082.50000   -0.07433
2083.00000   -0.07932
2083.50000   -0.08329
2084.00000   -0.08619
2084.50000   -0.08797
2085.00000   -0.08862
2085.50000   -0.08814
2086.00000   -0.08653
2086.50000   -0.08382
2087.00000   -0.08003
2087.50000   -0.07522
2088.00000   -0.06943
2088.50000   -0.06274
2089.00000   -0.05521
2089.50000   -0.04693
2090.00000   -0.03797
2090.50000   -0.02843
2091.00000   -0.01841
2091.50000   -0.00799
2092.00000    0.00270
2092.50000    0.01358
2093.00000    0.02454
2093.50000    0.03545
2094.00000    0.04621
2094.50000    0.05670
2095.00000    0.06681
2095.50000    0.07642
2096.00000    0.08541
2096.50000    0.09367
2097.00000    0.10110
2097.50000    0.10759
2098.00000    0.11305
2098.50000    0.11739
2099.00000    0.12055
2099.50000    0.12247
2100.00000    0.12314
2100.50000    0.12253
2101.00000    0.12067
2101.50000    0.11759
2102.00000    0.11337
2102.50000    0.10811
2103.00000    0.10191
2103.50000    0.09492
2104.00000    0.08730
2104.50000    0.07924
2105.00000    0.07090
2105.50000    0.06249
2106.00000    0.05418
2106.50000    0.04615
2107.00000    0.03855
2107.50000    0.03152
2108.00000    0.02517
2108.50000    0.01956
2109.00000    0.01475
2109.50000    0.01072
2110.00000    0.00746
2110.50000    0.00490
2111.00000    0.00294
2111.50000    0.00147
2112.00000    0.00036
2112.50000   -0.00053
2113.00000   -0.00134
2113.50000   -0.00222
2114.00000   -0.00327
2114.50000   -0.00462
2115.00000   -0.00635
2115.50000   -0.00850
2116.00000   -0.01113
2116.50000   -0.01424
2117.00000   -0.01781
2117.50000   -0.02181
2118.00000   -0.02619
2118.50000   -0.03090
2119.00000   -0.03588
2119.50000   -0.04105
2120.00000   -0.04637
2120.50000   -0.05179
2121.00000   -0.05727
2121.50000   -0.06279
2122.00000   -0.06834
2122.50000   -0.07391
2123.00000   -0.07949
2123.50000   -0.08510
2124.00000   -0.09072
2124.50000   -0.09634
2125.00000   -0.10192
2125.50000   -0.10742
2126.00000   -0.11275
2126.50000   -0.11782
2127.00000   -0.12248
2127.50000   -0.12659
2128.00000   -0.12996
2128.50000   -0.13241
2129.00000   -0.13371
2129.50000   -0.13368
2130.00000   -0.13210
2130.50000   -0.12881
2131.00000   -0.12363
2131.50000   -0.11647
2132.00000   -0.10724
2132.50000   -0.09592
2133.00000   -0.08255
2133.50000   -0.06723
2134.00000   -0.05009
2134.50000   -0.03135
2135.00000   -0.01126
2135.50000    0.00987
2136.00000    0.03172
2136.50000    0.05391
2137.00000    0.07609
2137.50000    0.09786
2138.00000    0.11888
2138.50000    0.13878
2139.00000    0.15727
2139.50000    0.17407
2140.00000    0.18896
2140.50000    0.20177
2141.00000    0.21238
2141.50000    0.22076
2142.00000    0.22688
2142.50000    0.23081
2143.00000    0.23266
2143.50000    0.23255
2144.00000    0.23066
2144.50000    0.22718
2145.00000    0.22233
2145.50000    0.21633
2146.00000    0.20937
2146.50000    0.20167
2147.00000    0.19342
2147.50000    0.18478
2148.00000    0.17589
2148.50000    0.16688
2149.00000    0.15785
2149.50000    0.14887
2150.00000    0.14000
2150.50000    0.13128
2151.00000    0.12273
2151.50000    0.11438
2152.00000    0.10623
2152.50000    0.09830
2153.00000    0.09060
2153.50000    0.08314
2154.00000    0.07594
2154.50000    0.06901
2155.00000    0.06236
2155.50000    0.05602
2156.00000    0.04999
2156.50000    0.04428
2157.00000    0.03889
2157.50000    0.03378
2158.00000    0.02894
2158.50000    0.02432
2159.00000    0.01987
2159.50000    0.01552
2160.00000    0.01119
2160.50000    0.00679
2161.00000    0.00226
2161.50000   -0.00250
2162.00000   -0.00755
2162.50000   -0.01294
2163.00000   -0.01872
2163.50000   -0.02490
2164.00000   -0.03147
2164.50000   -0.03839
2165.00000   -0.04560
2165.50000   -0.05301
2166.00000   -0.06052
2166.50000   -0.06798
2167.00000   -0.07524
2167.50000   -0.08216
2168.00000   -0.08855
2168.50000   -0.09427
2169.00000   -0.09912
2169.50000   -0.10298
2170.00000   -0.10567
2170.50000   -0.10708
2171.00000   -0.10709
2171.50000   -0.10560
2172.00000   -0.10253
2172.50000   -0.09782
2173.00000   -0.09142
2173.50000   -0.08332
2174.00000   -0.07349
2174.50000   -0.06196
2175.00000   -0.04876
2175.50000   -0.03393
2176.00000   -0.01754
2176.50000    0.00033
2177.00000    0.01955
2177.50000    0.04000
2178.00000    0.06154
2178.50000    0.08397
2179.00000    0.10711
2179.50000    0.13074
2180.00000    0.15465
2180.50000    0.17857
2181.00000    0.20228
2181.50000    0.22552
2182.00000    0.24805
2182.50000    0.26963
2183.00000    0.29004
2183.50000    0.30908
2184.00000    0.32656
2184.50000    0.34233
2185.00000    0.35627
2185.50000    0.36827
2186.00000    0.37826
2186.50000    0.38620
2187.00000    0.39207
2187.50000    0.39587
2188.00000    0.39761
2188.50000    0.39736
2189.00000    0.39515
2189.50000    0.39105
2190.00000    0.38515
2190.50000    0.37753
2191.00000    0.36828
2191.50000    0.35751
2192.00000    0.34532
2192.50000    0.33184
2193.00000    0.31718
2193.50000    0.30149
2194.00000    0.28490
2194.50000    0.26756
2195.00000    0.24963
2195.50000    0.23126
2196.00000    0.21262
2196.50000    0.19386
2197.00000    0.17515
2197.50000    0.15664
2198.00000    0.13848
2198.50000    0.12078
2199.00000    0.10367
2199.50000    0.08726
2200.00000    0.07162
2200.50000    0.05683
2201.00000    0.04292
2201.50000    0.02994
2202.00000    0.01790
2202.50000    0.00679
2203.00000   -0.00338
2203.50000   -0.01263
2204.00000   -0.02100
2204.50000   -0.02850
2205.00000   -0.03517
2205.50000   -0.04104
2206.00000   -0.04613
2206.50000   -0.05046
2207.00000   -0.05405
2207.50000   -0.05690
2208.00000   -0.05900
2208.50000   -0.06035
2209.00000   -0.06091
2209.50000   -0.06065
2210.00000   -0.05953
2210.50000   -0.05749
2211.00000   -0.05446
2211.50000   -0.05039
2212.00000   -0.04518
2212.50000   -0.03878
2213.00000   -0.03113
2213.50000   -0.02216
2214.00000   -0.01184
2214.50000   -0.00015
2215.00000    0.01290
2215.50000    0.02727
2216.00000    0.04288
2216.50000    0.05961
2217.00000    0.07731
2217.50000    0.09579
2218.00000    0.11479
2218.50000    0.13407
2219.00000    0.15330
2219.50000    0.17218
2220.00000    0.19037
2220.50000    0.20753
2221.00000    0.22335
2221.50000    0.23751
2222.00000    0.24974
2222.50000    0.25981
2223.00000    0.26754
2223.50000    0.27281
2224.00000    0.27555
2224.50000    0.27576
2225.00000    0.27350
2225.50000    0.26889
2226.00000    0.26209
2226.50000    0.25333
2227.00000    0.24286
2227.50000    0.23094
2228.00000    0.21787
2228.50000    0.20394
2229.00000    0.18943
2229.50000    0.17460
2230.00000    0.15968
2230.50000    0.14489
2231.00000    0.13039
2231.50000    0.11631
2232.00000    0.10273
2232.50000    0.08970
2233.00000    0.07726
2233.50000    0.06537
2234.00000    0.05402
2234.50000    0.04317
2235.00000    0.03275
2235.50000    0.02272
2236.00000    0.01304
2236.50000    0.00368
2237.00000   -0.00537
2237.50000   -0.01411
2238.00000   -0.02251
2238.50000   -0.03053
2239.00000   -0.03809
2239.50000   -0.04512
2240.00000   -0.05154
2240.50000   -0.05725
2241.00000   -0.06216
2241.50000   -0.06621
2242.00000   -0.06932
2242.50000   -0.07146
2243.00000   -0.07260
2243.50000   -0.07277
2244.00000   -0.07199
2244.50000   -0.07034
2245.00000   -0.06790
2245.50000   -0.06479
2246.00000   -0.06115
2246.50000   -0.05711
2247.00000   -0.05283
2247.50000   -0.04844
2248.00000   -0.04410
2248.50000   -0.03993
2249.00000   -0.03602
2249.50000   -0.03247
2250.00000   -0.02933
2250.50000   -0.02662
2251.00000   -0.02434
2251.50000   -0.02246
2252.00000   -0.02094
2252.50000   -0.01970
2253.00000   -0.01866
2253.50000   -0.01774
2254.00000   -0.01683
2254.50000   -0.01585
2255.00000   -0.01472
2255.50000   -0.01336
2256.00000   -0.01172
2256.50000   -0.00976
2257.00000   -0.00747
2257.50000   -0.00484
2258.00000   -0.00190
2258.50000    0.00133
2259.00000    0.00479
2259.50000    0.00842
2260.00000    0.01216
2260.50000    0.01593
2261.00000    0.01966
2261.50000    0.02327
2262.00000    0.02669
2262.50000    0.02985
2263.00000    0.03270
2263.50000    0.03519
2264.00000    0.03727
2264.50000    0.03892
2265.00000    0.04011
2265.50000    0.04084
2266.00000    0.04111
2266.50000    0.04093
2267.00000    0.04032
2267.50000    0.03932
2268.00000    0.03796
2268.50000    0.03629
2269.00000    0.03436
2269.50000    0.03223
2270.00000    0.02996
2270.50000    0.02759
2271.00000    0.02519
2271.50000    0.02279
2272.00000    0.02045
2272.50000    0.01820
2273.00000    0.01605
2273.50000    0.01403
2274.00000    0.01215
2274.50000    0.01040
2275.00000    0.00876
2275.50000    0.00723
2276.00000    0.00577
2276.50000    0.00437
2277.00000    0.00298
2277.50000    0.00158
2278.00000    0.00014
2278.50000   -0.00137
2279.00000   -0.00298
2279.50000   -0.00471
2280.00000   -0.00660
2280.50000   -0.00866
2281.00000   -0.01092
2281.50000   -0.01339
2282.00000   -0.01610
2282.50000   -0.01906
2283.00000   -0.02228
2283.50000   -0.02577
2284.00000   -0.02953
2284.50000   -0.03353
2285.00000   -0.03777
2285.50000   -0.04220
2286.00000   -0.04676
2286.50000   -0.05138
2287.00000   -0.05597
2287.50000   -0.06042
2288.00000   -0.06462
2288.50000   -0.06844
2289.00000   -0.07173
2289.50000   -0.07437
2290.00000   -0.07624
2290.50000   -0.07722
2291.00000   -0.07723
2291.50000   -0.07620
2292.00000   -0.07411
2292.50000   -0.07096
2293.00000   -0.06680
2293.50000   -0.06171
2294.00000   -0.05581
2294.50000   -0.04924
2295.00000   -0.04218
2295.50000   -0.03481
2296.00000   -0.02733
2296.50000   -0.01993
2297.00000   -0.01279
2297.50000   -0.00609
2298.00000    0.00003
2298.50000    0.00547
2299.00000    0.01013
2299.50000    0.01398
2300.00000    0.01700
2300.50000    0.01921
2301.00000    0.02063
2301.50000    0.02134
2302.00000    0.02140
2302.50000    0.02088
2303.00000    0.01987
2303.50000    0.01843
2304.00000    0.01663
2304.50000    0.01452
2305.00000    0.01213
2305.50000    0.00949
2306.00000    0.00663
2306.50000    0.00354
2307.00000    0.00025
2307.50000   -0.00323
2308.00000   -0.00686
2308.50000   -0.01061
2309.00000   -0.01441
2309.50000   -0.01820
2310.00000   -0.02186
2310.50000   -0.02530
2311.00000   -0.02837
2311.50000   -0.03095
2312.00000   -0.03290
2312.50000   -0.03409
2313.00000   -0.03439
2313.50000   -0.03371
2314.00000   -0.03197
2314.50000   -0.02912
2315.00000   -0.02516
2315.50000   -0.02012
2316.00000   -0.01406
2316.50000   -0.00709
2317.00000    0.00067
2317.50000    0.00906
2318.00000    0.01790
2318.50000    0.02700
2319.00000    0.03617
2319.50000    0.04522
2320.00000    0.05398
2320.50000    0.06228
2321.00000    0.07000
2321.50000    0.07703
2322.00000    0.08328
2322.50000    0.08872
2323.00000    0.09331
2323.50000    0.09706
2324.00000    0.09999
2324.50000    0.10215
2325.00000    0.10358
2325.50000    0.10436
2326.00000    0.10452
2326.50000    0.10415
2327.00000    0.10329
2327.50000    0.10198
2328.00000    0.10027
2328.50000    0.09820
2329.00000    0.09578
2329.50000    0.09303
2330.00000    0.08996
2330.50000    0.08659
2331.00000    0.08293
2331.50000    0.07899
2332.00000    0.07479
2332.50000    0.07034
2333.00000    0.06568
2333.50000    0.06083
2334.00000    0.05581
2334.50000    0.05065
2335.00000    0.04539
2335.50000    0.04003
2336.00000    0.03459
2336.50000    0.02907
2337.00000    0.02347
2337.50000    0.01776
2338.00000    0.01193
2338.50000    0.00594
2339.00000   -0.00026
2339.50000   -0.00670
2340.00000   -0.01344
2340.50000   -0.02050
2341.00000   -0.02791
2341.50000   -0.03569
2342.00000   -0.04383
2342.50000   -0.05229
2343.00000   -0.06103
2343.50000   -0.06998
2344.00000   -0.07902
2344.50000   -0.08802
2345.00000   -0.09684
2345.50000   -0.10530
2346.00000   -0.11322
2346.50000   -0.12039
2347.00000   -0.12662
2347.50000   -0.13171
2348.00000   -0.13546
2348.50000   -0.13770
2349.00000   -0.13826
2349.50000   -0.13702
2350.00000   -0.13388
2350.50000   -0.12875
2351.00000   -0.12163
2351.50000   -0.11252
2352.00000   -0.10148
2352.50000   -0.08860
2353.00000   -0.07403
2353.50000   -0.05794
2354.00000   -0.04056
2354.50000   -0.02213
2355.00000   -0.00292
2355.50000    0.01676
2356.00000    0.03659
2356.50000    0.05626
2357.00000    0.07544
2357.50000    0.09381
2358.00000    0.11108
2358.50000    0.12696
2359.00000    0.14121
2359.50000    0.15360
2360.00000    0.16397
2360.50000    0.17217
2361.00000    0.17812
2361.50000    0.18178
2362.00000    0.18316
2362.50000    0.18231
2363.00000    0.17931
2363.50000    0.17431
2364.00000    0.16746
2364.50000    0.15896
2365.00000    0.14902
2365.50000    0.13787
2366.00000    0.12576
2366.50000    0.11292
2367.00000    0.09959
2367.50000    0.08602
2368.00000    0.07242
2368.50000    0.05901
2369.00000    0.04597
2369.50000    0.03346
2370.00000    0.02162
2370.50000    0.01057
2371.00000    0.00040
2371.50000   -0.00885
2372.00000   -0.01714
2372.50000   -0.02447
2373.00000   -0.03088
2373.50000   -0.03641
2374.00000   -0.04112
2374.50000   -0.04512
2375.00000   -0.04849
2375.50000   -0.05133
2376.00000   -0.05376
2376.50000   -0.05587
2377.00000   -0.05776
2377.50000   -0.05951
2378.00000   -0.06117
2378.50000   -0.06279
2379.00000   -0.06439
2379.50000   -0.06595
2380.00000   -0.06745
2380.50000   -0.06885
2381.00000   -0.07007
2381.50000   -0.07103
2382.00000   -0.07165
2382.50000   -0.07183
2383.00000   -0.07147
2383.50000   -0.07050
2384.00000   -0.06884
2384.50000   -0.06642
2385.00000   -0.06321
2385.50000   -0.05919
2386.00000   -0.05435
2386.50000   -0.04874
2387.00000   -0.04239
2387.50000   -0.03537
2388.00000   -0.02779
2388.50000   -0.01973
2389.00000   -0.01132
2389.50000   -0.00269
2390.00000    0.00602
2390.50000    0.01468
2391.00000    0.02313
2391.50000    0.03124
2392.00000    0.03887
2392.50000    0.04591
2393.00000    0.05223
2393.50000    0.05773
2394.00000    0.06234
2394.50000    0.06600
2395.00000    0.06867
2395.50000    0.07034
2396.00000    0.07104
2396.50000    0.07080
2397.00000    0.06972
2397.50000    0.06789
2398.00000    0.06544
2398.50000    0.06254
2399.00000    0.05936
2399.50000    0.05608
2400.00000    0.05290
2400.50000    0.05000
2401.00000    0.04756
2401.50000    0.04574
2402.00000    0.04467
2402.50000    0.04444
2403.00000    0.04510
2403.50000    0.04667
2404.00000    0.04911
2404.50000    0.05233
2405.00000    0.05620
2405.50000    0.06053
2406.00000    0.06512
2406.50000    0.06973
2407.00000    0.07410
2407.50000    0.07795
2408.00000    0.08103
2408.50000    0.08307
2409.00000    0.08385
2409.50000    0.08316
2410.00000    0.08086
2410.50000    0.07684
2411.00000    0.07104
2411.50000    0.06345
2412.00000    0.05413
2412.50000    0.04318
2413.00000    0.03076
2413.50000    0.01706
2414.00000    0.00231
2414.50000   -0.01324
2415.00000   -0.02931
2415.50000   -0.04562
2416.00000   -0.06189
2416.50000   -0.07785
2417.00000   -0.09322
2417.50000   -0.10778
2418.00000   -0.12131
2418.50000   -0.13363
2419.00000   -0.14458
2419.50000   -0.15404
2420.00000   -0.16193
2420.50000   -0.16818
2421.00000   -0.17278
2421.50000   -0.17571
2422.00000   -0.17700
2422.50000   -0.17669
2423.00000   -0.17485
2423.50000   -0.17156
2424.00000   -0.16693
2424.50000   -0.16106
2425.00000   -0.15407
2425.50000   -0.14612
2426.00000   -0.13735
2426.50000   -0.12791
2427.00000   -0.11798
2427.50000   -0.10771
2428.00000   -0.09728
2428.50000   -0.08686
2429.00000   -0.07660
2429.50000   -0.06665
2430.00000   -0.05714
2430.50000   -0.04817
2431.00000   -0.03984
2431.50000   -0.03219
2432.00000   -0.02525
2432.50000   -0.01901
2433.00000   -0.01342
2433.50000   -0.00842
2434.00000   -0.00391
2434.50000    0.00023
2435.00000    0.00413
2435.50000    0.00793
2436.00000    0.01176
2436.50000    0.01575
2437.00000    0.02001
2437.50000    0.02464
2438.00000    0.02969
2438.50000    0.03520
2439.00000    0.04116
2439.50000    0.04754
2440.00000    0.05428
2440.50000    0.06129
2441.00000    0.06845
2441.50000    0.07566
2442.00000    0.08276
2442.50000    0.08965
2443.00000    0.09619
2443.50000    0.10229
2444.00000    0.10786
2444.50000    0.11284
2445.00000    0.11720
2445.50000    0.12095
2446.00000    0.12411
2446.50000    0.12677
2447.00000    0.12902
2447.50000    0.13098
2448.00000    0.13281
2448.50000    0.13468
2449.00000    0.13680
2449.50000    0.13936
2450.00000    0.14259
2450.50000    0.14671
2451.00000    0.15195
2451.50000    0.15853
2452.00000    0.16664
2452.50000    0.17649
2453.00000    0.18824
2453.50000    0.20201
2454.00000    0.21789
2454.50000    0.23593
2455.00000    0.25612
2455.50000    0.27838
2456.00000    0.30260
2456.50000    0.32856
2457.00000    0.35602
2457.50000    0.38464
2458.00000    0.41406
2458.50000    0.44384
2459.00000    0.47353
2459.50000    0.50264
2460.00000    0.53066
2460.50000    0.55711
2461.00000    0.58152
2461.50000    0.60343
2462.00000    0.62246
2462.50000    0.63829
2463.00000    0.65066
2463.50000    0.65939
2464.00000    0.66438
2464.50000    0.66563
2465.00000    0.66321
2465.50000    0.65727
2466.00000    0.64802
2466.50000    0.63574
2467.00000    0.62073
2467.50000    0.60337
2468.00000    0.58400
2468.50000    0.56302
2469.00000    0.54078
2469.50000    0.51764
2470.00000    0.49393
2470.50000    0.46992
2471.00000    0.44588
2471.50000    0.42202
2472.00000    0.39851
2472.50000    0.37548
2473.00000    0.35304
2473.50000    0.33125
2474.00000    0.31017
2474.50000    0.28980
2475.00000    0.27017
2475.50000    0.25128
2476.00000    0.23313
2476.50000    0.21571
2477.00000    0.19904
2477.50000    0.18310
2478.00000    0.16792
2478.50000    0.15348
2479.00000    0.13980
2479.50000    0.12687
2480.00000    0.11468
2480.50000    0.10321
2481.00000    0.09241
2481.50000    0.08222
2482.00000    0.07257
2482.50000    0.06335
2483.00000    0.05446
2483.50000    0.04576
2484.00000    0.03711
2484.50000    0.02835
2485.00000    0.01936
2485.50000    0.00998
2486.00000    0.00009
2486.50000   -0.01039
2487.00000   -0.02155
2487.50000   -0.03341
2488.00000   -0.04596
2488.50000   -0.05915
2489.00000   -0.07289
2489.50000   -0.08704
2490.00000   -0.10142
2490.50000   -0.11583
2491.00000   -0.13004
2491.50000   -0.14379
2492.00000   -0.15683
2492.50000   -0.16890
2493.00000   -0.17976
2493.50000   -0.18919
2494.00000   -0.19699
2494.50000   -0.20302
2495.00000   -0.20715
2495.50000   -0.20931
2496.00000   -0.20949
2496.50000   -0.20771
2497.00000   -0.20402
2497.50000   -0.19854
2498.00000   -0.19138
2498.50000   -0.18272
2499.00000   -0.17274
2499.50000   -0.16162
2500.00000   -0.14956
2500.50000   -0.13677
2501.00000   -0.12344
2501.50000   -0.10976
2502.00000   -0.09591
2502.50000   -0.08204
2503.00000   -0.06830
2503.50000   -0.05483
2504.00000   -0.04175
2504.50000   -0.02915
2505.00000   -0.01715
2505.50000   -0.00581
2506.00000    0.00480
2506.50000    0.01460
2507.00000    0.02355
2507.50000    0.03161
2508.00000    0.03875
2508.50000    0.04496
2509.00000    0.05025
2509.50000    0.05461
2510.00000    0.05811
2510.50000    0.06078
2511.00000    0.06269
2511.50000    0.06395
2512.00000    0.06464
2512.50000    0.06490
2513.00000    0.06485
2513.50000    0.06462
2514.00000    0.06436
2514.50000    0.06419
2515.00000    0.06424
2515.50000    0.06461
2516.00000    0.06539
2516.50000    0.06665
2517.00000    0.06842
2517.50000    0.07072
2518.00000    0.07351
2518.50000    0.07675
2519.00000    0.08036
2519.50000    0.08423
2520.00000    0.08825
2520.50000    0.09227
2521.00000    0.09615
2521.50000    0.09974
2522.00000    0.10289
2522.50000    0.10547
2523.00000    0.10735
2523.50000    0.10844
2524.00000    0.10865
2524.50000    0.10795
2525.00000    0.10632
2525.50000    0.10377
2526.00000    0.10037
2526.50000    0.09619
2527.00000    0.09134
2527.50000    0.08596
2528.00000    0.08022
2528.50000    0.07428
2529.00000    0.06835
2529.50000    0.06262
2530.00000    0.05728
2530.50000    0.05251
2531.00000    0.04848
2531.50000    0.04535
2532.00000    0.04321
2532.50000    0.04216
2533.00000    0.04223
2533.50000    0.04343
2534.00000    0.04569
2534.50000    0.04894
2535.00000    0.05304
2535.50000    0.05781
2536.00000    0.06306
2536.50000    0.06856
2537.00000    0.07406
2537.50000    0.07932
2538.00000    0.08409
2538.50000    0.08814
2539.00000    0.09126
2539.50000    0.09328
2540.00000    0.09407
2540.50000    0.09352
2541.00000    0.09158
2541.50000    0.08825
2542.00000    0.08356
2542.50000    0.07759
2543.00000    0.07043
2543.50000    0.06221
2544.00000    0.05308
2544.50000    0.04318
2545.00000    0.03267
2545.50000    0.02170
2546.00000    0.01041
2546.50000   -0.00108
2547.00000   -0.01267
2547.50000   -0.02424
2548.00000   -0.03572
2548.50000   -0.04703
2549.00000   -0.05810
2549.50000   -0.06886
2550.00000   -0.07924
2550.50000   -0.08914
2551.00000   -0.09850
2551.50000   -0.10720
2552.00000   -0.11515
2552.50000   -0.12223
2553.00000   -0.12833
2553.50000   -0.13334
2554.00000   -0.13717
2554.50000   -0.13972
2555.00000   -0.14092
2555.50000   -0.14074
2556.00000   -0.13916
2556.50000   -0.13620
2557.00000   -0.13190
2557.50000   -0.12633
2558.00000   -0.11960
2558.50000   -0.11184
2559.00000   -0.10319
2559.50000   -0.09379
2560.00000   -0.08381
2560.50000   -0.07340
2561.00000   -0.06272
2561.50000   -0.05189
2562.00000   -0.04105
2562.50000   -0.03029
2563.00000   -0.01969
2563.50000   -0.00933
2564.00000    0.00074
2564.50000    0.01051
2565.00000    0.01994
2565.50000    0.02903
2566.00000    0.03776
2566.50000    0.04613
2567.00000    0.05412
2567.50000    0.06173
2568.00000    0.06893
2568.50000    0.07568
2569.00000    0.08195
2569.50000    0.08768
2570.00000    0.09281
2570.50000    0.09727
2571.00000    0.10100
2571.50000    0.10390
2572.00000    0.10592
2572.50000    0.10698
2573.00000    0.10702
2573.50000    0.10597
2574.00000    0.10381
2574.50000    0.10049
2575.00000    0.09601
2575.50000    0.09039
2576.00000    0.08366
2576.50000    0.07586
2577.00000    0.06707
2577.50000    0.05740
2578.00000    0.04695
2578.50000    0.03586
2579.00000    0.02427
2579.50000    0.01235
2580.00000    0.00025
2580.50000   -0.01186
2581.00000   -0.02381
2581.50000   -0.03547
2582.00000   -0.04669
2582.50000   -0.05734
2583.00000   -0.06734
2583.50000   -0.07659
2584.00000   -0.08505
2584.50000   -0.09268
2585.00000   -0.09948
2585.50000   -0.10544
2586.00000   -0.11061
2586.50000   -0.11502
2587.00000   -0.11873
2587.50000   -0.12179
2588.00000   -0.12426
2588.50000   -0.12620
2589.00000   -0.12766
2589.50000   -0.12868
2590.00000   -0.12929
2590.50000   -0.12953
2591.00000   -0.12939
2591.50000   -0.12887
2592.00000   -0.12797
2592.50000   -0.12666
2593.00000   -0.12492
2593.50000   -0.12271
2594.00000   -0.12001
2594.50000   -0.11677
2595.00000   -0.11297
2595.50000   -0.10857
2596.00000   -0.10356
2596.50000   -0.09791
2597.00000   -0.09161
2597.50000   -0.08467
2598.00000   -0.07711
2598.50000   -0.06894
2599.00000   -0.06022
2599.50000   -0.05100
2600.00000   -0.04137
2600.50000   -0.03142
2601.00000   -0.02128
2601.50000   -0.01109
2602.00000   -0.00101
2602.50000    0.00878
2603.00000    0.01808
2603.50000    0.02671
2604.00000    0.03444
2604.50000    0.04110
2605.00000    0.04649
2605.50000    0.05047
2606.00000    0.05290
2606.50000    0.05369
2607.00000    0.05281
2607.50000    0.05027
2608.00000    0.04613
2608.50000    0.04052
2609.00000    0.03360
2609.50000    0.02560
2610.00000    0.01679
2610.50000    0.00745
2611.00000   -0.00210
2611.50000   -0.01154
2612.00000   -0.02055
2612.50000   -0.02884
2613.00000   -0.03614
2613.50000   -0.04222
2614.00000   -0.04691
2614.50000   -0.05007
2615.00000   -0.05165
2615.50000   -0.05162
2616.00000   -0.05002
2616.50000   -0.04694
2617.00000   -0.04249
2617.50000   -0.03683
2618.00000   -0.03012
2618.50000   -0.02255
2619.00000   -0.01430
2619.50000   -0.00555
2620.00000    0.00353
2620.50000    0.01279
2621.00000    0.02209
2621.50000    0.03131
2622.00000    0.04033
2622.50000    0.04907
2623.00000    0.05741
2623.50000    0.06528
2624.00000    0.07258
2624.50000    0.07923
2625.00000    0.08512
2625.50000    0.09015
2626.00000    0.09423
2626.50000    0.09726
2627.00000    0.09914
2627.50000    0.09979
2628.00000    0.09915
2628.50000    0.09719
2629.00000    0.09390
2629.50000    0.08931
2630.00000    0.08349
2630.50000    0.07655
2631.00000    0.06866
2631.50000    0.06000
2632.00000    0.05083
2632.50000    0.04140
2633.00000    0.03202
2633.50000    0.02302
2634.00000    0.01473
2634.50000    0.00751
2635.00000    0.00168
2635.50000   -0.00240
2636.00000   -0.00441
2636.50000   -0.00407
2637.00000   -0.00109
2637.50000    0.00474
2638.00000    0.01362
2638.50000    0.02569
2639.00000    0.04105
2639.50000    0.05976
2640.00000    0.08181
2640.50000    0.10714
2641.00000    0.13567
2641.50000    0.16725
2642.00000    0.20171
2642.50000    0.23885
2643.00000    0.27843
2643.50000    0.32024
2644.00000    0.36404
2644.50000    0.40961
2645.00000    0.45677
2645.50000    0.50536
2646.00000    0.55527
2646.50000    0.60644
2647.00000    0.65886
2647.50000    0.71259
2648.00000    0.76774
2648.50000    0.82447
2649.00000    0.88299
2649.50000    0.94355
2650.00000    1.00642
2650.50000    1.07189
2651.00000    1.14028
2651.50000    1.21189
2652.00000    1.28700
2652.50000    1.36589
2653.00000    1.44881
2653.50000    1.53598
2654.00000    1.62762
2654.50000    1.72389
2655.00000    1.82496
2655.50000    1.93098
2656.00000    2.04207
2656.50000    2.15838
2657.00000    2.28001
2657.50000    2.40711
2658.00000    2.53979
2658.50000    2.67817
2659.00000    2.82235
2659.50000    2.97243
2660.00000    3.12847
2660.50000    3.29048
2661.00000    3.45844
2661.50000    3.63226
2662.00000    3.81178
2662.50000    3.99679
2663.00000    4.18695
2663.50000    4.38189
2664.00000    4.58113
2664.50000    4.78412
2665.00000    4.99027
2665.50000    5.19892
2666.00000    5.40939
2666.50000    5.62095
2667.00000    5.83291
2667.50000    6.04455
2668.00000    6.25521
2668.50000    6.46423
2669.00000    6.67103
2669.50000    6.87505
2670.00000    7.07581
2670.50000    7.27285
2671.00000    7.46577
2671.50000    7.65421
2672.00000    7.83781
2672.50000    8.01628
2673.00000    8.18929
2673.50000    8.35653
2674.00000    8.51768
2674.50000    8.67242
2675.00000    8.82040
2675.50000    8.96126
2676.00000    9.09463
2676.50000    9.22014
2677.00000    9.33742
2677.50000    9.44609
2678.00000    9.54582
2678.50000    9.63628
2679.00000    9.71719
2679.50000    9.78829
2680.00000    9.84937
2680.50000    9.90026
2681.00000    9.94085
2681.50000    9.97103
2682.00000    9.99076
2682.50000   10.00000
2683.00000    9.99874
2683.50000    9.98700
2684.00000    9.96477
2684.50000    9.93207
2685.00000    9.88894
2685.50000    9.83539
2686.00000    9.77146
2686.50000    9.69719
2687.00000    9.61264
2687.50000    9.51791
2688.00000    9.41313
2688.50000    9.29849
2689.00000    9.17421
2689.50000    9.04059
2690.00000    8.89801
2690.50000    8.74690
2691.00000    8.58779
2691.50000    8.42125
2692.00000    8.24793
2692.50000    8.06852
2693.00000    7.88377
2693.50000    7.69445
2694.00000    7.50134
2694.50000    7.30522
2695.00000    7.10686
2695.50000    6.90703
2696.00000    6.70645
2696.50000    6.50578
2697.00000    6.30569
2697.50000    6.10676
2698.00000    5.90955
2698.50000    5.71459
2699.00000    5.52235
2699.50000    5.33331
2700.00000    5.14789
2700.50000    4.96651
2701.00000    4.78957
2701.50000    4.61745
2702.00000    4.45052
2702.50000    4.28913
2703.00000    4.13360
2703.50000    3.98423
2704.00000    3.84125
2704.50000    3.70487
2705.00000    3.57521
2705.50000    3.45233
2706.00000    3.33623
2706.50000    3.22680
2707.00000    3.12386
2707.50000    3.02713
2708.00000    2.93627
2708.50000    2.85085
2709.00000    2.77038
2709.50000    2.69432
2710.00000    2.62209
2710.50000    2.55310
2711.00000    2.48673
2711.50000    2.42239
2712.00000    2.35951
2712.50000    2.29755
2713.00000    2.23603
2713.50000    2.17450
2714.00000    2.11259
2714.50000    2.04999
2715.00000    1.98645
2715.50000    1.92181
2716.00000    1.85594
2716.50000    1.78879
2717.00000    1.72036
2717.50000    1.65072
2718.00000    1.57998
2718.50000    1.50828
2719.00000    1.43584
2719.50000    1.36289
2720.00000    1.28970
2720.50000    1.21659
2721.00000    1.14389
2721.50000    1.07197
2722.00000    1.00121
2722.50000    0.93200
2723.00000    0.86474
2723.50000    0.79983
2724.00000    0.73765
2724.50000    0.67854
2725.00000    0.62282
2725.50000    0.57078
2726.00000    0.52261
2726.50000    0.47847
2727.00000    0.43842
2727.50000    0.40247
2728.00000    0.37052
2728.50000    0.34240
2729.00000    0.31787
2729.50000    0.29661
2730.00000    0.27826
2730.50000    0.26237
2731.00000    0.24851
2731.50000    0.23619
2732.00000    0.22495
2732.50000    0.21434
2733.00000    0.20393
2733.50000    0.19336
2734.00000    0.18232
2734.50000    0.17058
2735.00000    0.15799
2735.50000    0.14446
2736.00000    0.12999
2736.50000    0.11467
2737.00000    0.09863
2737.50000    0.08207
2738.00000    0.06522
2738.50000    0.04836
2739.00000    0.03175
2739.50000    0.01568
2740.00000    0.00039
2740.50000   -0.01387
2741.00000   -0.02690
2741.50000   -0.03857
2742.00000   -0.04876
2742.50000   -0.05741
2743.00000   -0.06452
2743.50000   -0.07012
2744.00000   -0.07427
2744.50000   -0.07707
2745.00000   -0.07863
2745.50000   -0.07909
2746.00000   -0.07856
2746.50000   -0.07719
2747.00000   -0.07507
2747.50000   -0.07232
2748.00000   -0.06902
2748.50000   -0.06525
2749.00000   -0.06105
2749.50000   -0.05649
2750.00000   -0.05160
2750.50000   -0.04642
2751.00000   -0.04098
2751.50000   -0.03534
2752.00000   -0.02954
2752.50000   -0.02363
2753.00000   -0.01768
2753.50000   -0.01176
2754.00000   -0.00594
2754.50000   -0.00027
2755.00000    0.00517
2755.50000    0.01034
2756.00000    0.01521
2756.50000    0.01976
2757.00000    0.02401
2757.50000    0.02799
2758.00000    0.03173
2758.50000    0.03531
2759.00000    0.03880
2759.50000    0.04228
2760.00000    0.04581
2760.50000    0.04947
2761.00000    0.05329
2761.50000    0.05729
2762.00000    0.06148
2762.50000    0.06581
2763.00000    0.07021
2763.50000    0.07458
2764.00000    0.07879
2764.50000    0.08270
2765.00000    0.08615
2765.50000    0.08896
2766.00000    0.09095
2766.50000    0.09197
2767.00000    0.09186
2767.50000    0.09049
2768.00000    0.08775
2768.50000    0.08355
2769.00000    0.07785
2769.50000    0.07062
2770.00000    0.06187
2770.50000    0.05165
2771.00000    0.04002
2771.50000    0.02708
2772.00000    0.01295
2772.50000   -0.00221
2773.00000   -0.01823
2773.50000   -0.03490
2774.00000   -0.05202
2774.50000   -0.06933
2775.00000   -0.08657
2775.50000   -0.10348
2776.00000   -0.11977
2776.50000   -0.13515
2777.00000   -0.14935
2777.50000   -0.16208
2778.00000   -0.17311
2778.50000   -0.18220
2779.00000   -0.18918
2779.50000   -0.19391
2780.00000   -0.19631
2780.50000   -0.19634
2781.00000   -0.19405
2781.50000   -0.18953
2782.00000   -0.18295
2782.50000   -0.17449
2783.00000   -0.16442
2783.50000   -0.15302
2784.00000   -0.14060
2784.50000   -0.12747
2785.00000   -0.11394
2785.50000   -0.10029
2786.00000   -0.08679
2786.50000   -0.07367
2787.00000   -0.06110
2787.50000   -0.04921
2788.00000   -0.03808
2788.50000   -0.02775
2789.00000   -0.01821
2789.50000   -0.00940
2790.00000   -0.00124
2790.50000    0.00635
2791.00000    0.01348
2791.50000    0.02026
2792.00000    0.02680
2792.50000    0.03317
2793.00000    0.03943
2793.50000    0.04562
2794.00000    0.05174
2794.50000    0.05778
2795.00000    0.06368
2795.50000    0.06937
2796.00000    0.07476
2796.50000    0.07974
2797.00000    0.08421
2797.50000    0.08805
2798.00000    0.09116
2798.50000    0.09345
2799.00000    0.09484
2799.50000    0.09530
2800.00000    0.09480
2800.50000    0.09334
2801.00000    0.09097
2801.50000    0.08776
2802.00000    0.08378
2802.50000    0.07917
2803.00000    0.07406
2803.50000    0.06859
2804.00000    0.06293
2804.50000    0.05721
2805.00000    0.05160
2805.50000    0.04621
2806.00000    0.04117
2806.50000    0.03656
2807.00000    0.03244
2807.50000    0.02882
2808.00000    0.02572
2808.50000    0.02308
2809.00000    0.02085
2809.50000    0.01895
2810.00000    0.01727
2810.50000    0.01571
2811.00000    0.01417
2811.50000    0.01253
2812.00000    0.01073
2812.50000    0.00870
2813.00000    0.00640
2813.50000    0.00384
2814.00000    0.00106
2814.50000   -0.00188
2815.00000   -0.00489
2815.50000   -0.00783
2816.00000   -0.01058
2816.50000   -0.01296
2817.00000   -0.01484
2817.50000   -0.01607
2818.00000   -0.01651
2818.50000   -0.01607
2819.00000   -0.01469
2819.50000   -0.01231
2820.00000   -0.00897
2820.50000   -0.00471
2821.00000    0.00038
2821.50000    0.00617
2822.00000    0.01250
2822.50000    0.01918
2823.00000    0.02602
2823.50000    0.03282
2824.00000    0.03938
2824.50000    0.04552
2825.00000    0.05106
2825.50000    0.05587
2826.00000    0.05985
2826.50000    0.06290
2827.00000    0.06500
2827.50000    0.06613
2828.00000    0.06630
2828.50000    0.06556
2829.00000    0.06397
2829.50000    0.06162
2830.00000    0.05859
2830.50000    0.05498
2831.00000    0.05090
2831.50000    0.04644
2832.00000    0.04170
2832.50000    0.03678
2833.00000    0.03176
2833.50000    0.02673
2834.00000    0.02175
2834.50000    0.01689
2835.00000    0.01222
2835.50000    0.00780
2836.00000    0.00367
2836.50000   -0.00012
2837.00000   -0.00354
2837.50000   -0.00655
2838.00000   -0.00914
2838.50000   -0.01129
2839.00000   -0.01302
2839.50000   -0.01433
2840.00000   -0.01526
2840.50000   -0.01583
2841.00000   -0.01611
2841.50000   -0.01615
2842.00000   -0.01601
2842.50000   -0.01578
2843.00000   -0.01552
2843.50000   -0.01530
2844.00000   -0.01518
2844.50000   -0.01524
2845.00000   -0.01550
2845.50000   -0.01602
2846.00000   -0.01681
2846.50000   -0.01789
2847.00000   -0.01926
2847.50000   -0.02092
2848.00000   -0.02285
2848.50000   -0.02503
2849.00000   -0.02744
2849.50000   -0.03006
2850.00000   -0.03287
2850.50000   -0.03585
2851.00000   -0.03898
2851.50000   -0.04223
2852.00000   -0.04560
2852.50000   -0.04905
2853.00000   -0.05255
2853.50000   -0.05605
2854.00000   -0.05949
2854.50000   -0.06279
2855.00000   -0.06585
2855.50000   -0.06855
2856.00000   -0.07074
2856.50000   -0.07227
2857.00000   -0.07296
2857.50000   -0.07263
2858.00000   -0.07110
2858.50000   -0.06819
2859.00000   -0.06374
2859.50000   -0.05763
2860.00000   -0.04973
2860.50000   -0.04001
2861.00000   -0.02843
2861.50000   -0.01505
2862.00000    0.00005
2862.50000    0.01672
2863.00000    0.03475
2863.50000    0.05391
2864.00000    0.07389
2864.50000    0.09440
2865.00000    0.11506
2865.50000    0.13554
2866.00000    0.15547
2866.50000    0.17450
2867.00000    0.19228
2867.50000    0.20850
2868.00000    0.22288
2868.50000    0.23517
2869.00000    0.24516
2869.50000    0.25268
2870.00000    0.25762
2870.50000    0.25988
2871.00000    0.25944
2871.50000    0.25632
2872.00000    0.25055
2872.50000    0.24224
2873.00000    0.23152
2873.50000    0.21857
2874.00000    0.20359
2874.50000    0.18684
2875.00000    0.16859
2875.50000    0.14914
2876.00000    0.12880
2876.50000    0.10792
2877.00000    0.08684
2877.50000    0.06590
2878.00000    0.04544
2878.50000    0.02578
2879.00000    0.00720
2879.50000   -0.01004
2880.00000   -0.02572
2880.50000   -0.03967
2881.00000   -0.05176
2881.50000   -0.06192
2882.00000   -0.07014
2882.50000   -0.07644
2883.00000   -0.08089
2883.50000   -0.08361
2884.00000   -0.08473
2884.50000   -0.08441
2885.00000   -0.08284
2885.50000   -0.08019
2886.00000   -0.07664
2886.50000   -0.07238
2887.00000   -0.06755
2887.50000   -0.06229
2888.00000   -0.05672
2888.50000   -0.05094
2889.00000   -0.04501
2889.50000   -0.03899
2890.00000   -0.03290
2890.50000   -0.02675
2891.00000   -0.02055
2891.50000   -0.01427
2892.00000   -0.00790
2892.50000   -0.00141
2893.00000    0.00521
2893.50000    0.01199
2894.00000    0.01896
2894.50000    0.02611
2895.00000    0.03345
2895.50000    0.04099
2896.00000    0.04871
2896.50000    0.05659
2897.00000    0.06462
2897.50000    0.07276
2898.00000    0.08099
2898.50000    0.08927
2899.00000    0.09759
2899.50000    0.10592
