1200.50000   -0.09349
1201.00000   -0.09050
1201.50000   -0.08749
1202.00000   -0.08447
1202.50000   -0.08143
1203.00000   -0.07834
1203.50000   -0.07520
1204.00000   -0.07197
1204.50000   -0.06864
1205.00000   -0.06516
1205.50000   -0.06151
1206.00000   -0.05765
1206.50000   -0.05352
1207.00000   -0.04911
1207.50000   -0.04435
1208.00000   -0.03922
1208.50000   -0.03368
1209.00000   -0.02771
1209.50000   -0.02129
1210.00000   -0.01442
1210.50000   -0.00711
1211.00000    0.00061
1211.50000    0.00872
1212.00000    0.01716
1212.50000    0.02586
1213.00000    0.03475
1213.50000    0.04373
1214.00000    0.05271
1214.50000    0.06157
1215.00000    0.07020
1215.50000    0.07850
1216.00000    0.08634
1216.50000    0.09361
1217.00000    0.10021
1217.50000    0.10604
1218.00000    0.11101
1218.50000    0.11504
1219.00000    0.11806
1219.50000    0.12004
1220.00000    0.12092
1220.50000    0.12071
1221.00000    0.11939
1221.50000    0.11699
1222.00000    0.11353
1222.50000    0.10907
1223.00000    0.10367
1223.50000    0.09742
1224.00000    0.09040
1224.50000    0.08273
1225.00000    0.07451
1225.50000    0.06588
1226.00000    0.05696
1226.50000    0.04788
1227.00000    0.03879
1227.50000    0.02980
1228.00000    0.02105
1228.50000    0.01265
1229.00000    0.00472
1229.50000   -0.00267
1230.00000   -0.00942
1230.50000   -0.01548
1231.00000   -0.02081
1231.50000   -0.02539
1232.00000   -0.02920
1232.50000   -0.03227
1233.00000   -0.03462
1233.50000   -0.03631
1234.00000   -0.03739
1234.50000   -0.03794
1235.00000   -0.03802
1235.50000   -0.03772
1236.00000   -0.03712
1236.50000   -0.03629
1237.00000   -0.03531
1237.50000   -0.03423
1238.00000   -0.03311
1238.50000   -0.03199
1239.00000   -0.03088
1239.50000   -0.02981
1240.00000   -0.02876
1240.50000   -0.02773
1241.00000   -0.02669
1241.50000   -0.02560
1242.00000   -0.02442
1242.50000   -0.02312
1243.00000   -0.02165
1243.50000   -0.01997
1244.00000   -0.01804
1244.50000   -0.01585
1245.00000   -0.01337
1245.50000   -0.01060
1246.00000   -0.00755
1246.50000   -0.00425
1247.00000   -0.00073
1247.50000    0.00295
1248.00000    0.00674
1248.50000    0.01054
1249.00000    0.01430
1249.50000    0.01790
1250.00000    0.02126
1250.50000    0.02430
1251.00000    0.02690
1251.50000    0.02900
1252.00000    0.03051
1252.50000    0.03136
1253.00000    0.03151
1253.50000    0.03092
1254.00000    0.02957
1254.50000    0.02745
1255.00000    0.02457
1255.50000    0.02098
1256.00000    0.01672
1256.50000    0.01186
1257.00000    0.00646
1257.50000    0.00063
1258.00000   -0.00554
1258.50000   -0.01194
1259.00000   -0.01845
1259.50000   -0.02498
1260.00000   -0.03140
1260.50000   -0.03762
1261.00000   -0.04352
1261.50000   -0.04902
1262.00000   -0.05404
1262.50000   -0.05850
1263.00000   -0.06234
1263.50000   -0.06553
1264.00000   -0.06802
1264.50000   -0.06981
1265.00000   -0.07087
1265.50000   -0.07122
1266.00000   -0.07087
1266.50000   -0.06984
1267.00000   -0.06819
1267.50000   -0.06594
1268.00000   -0.06314
1268.50000   -0.05987
1269.00000   -0.05618
1269.50000   -0.05213
1270.00000   -0.04780
1270.50000   -0.04327
1271.00000   -0.03860
1271.50000   -0.03389
1272.00000   -0.02919
1272.50000   -0.02460
1273.00000   -0.02018
1273.50000   -0.01601
1274.00000   -0.01215
1274.50000   -0.00866
1275.00000   -0.00559
1275.50000   -0.00297
1276.00000   -0.00084
1276.50000    0.00080
1277.00000    0.00195
1277.50000    0.00264
1278.00000    0.00290
1278.50000    0.00280
1279.00000    0.00241
1279.50000    0.00185
1280.00000    0.00122
1280.50000    0.00065
1281.00000    0.00028
1281.50000    0.00025
1282.00000    0.00073
1282.50000    0.00184
1283.00000    0.00374
1283.50000    0.00653
1284.00000    0.01034
1284.50000    0.01524
1285.00000    0.02128
1285.50000    0.02847
1286.00000    0.03681
1286.50000    0.04622
1287.00000    0.05663
1287.50000    0.06789
1288.00000    0.07983
1288.50000    0.09226
1289.00000    0.10495
1289.50000    0.11767
1290.00000    0.13015
1290.50000    0.14213
1291.00000    0.15337
1291.50000    0.16361
1292.00000    0.17264
1292.50000    0.18025
1293.00000    0.18629
1293.50000    0.19061
1294.00000    0.19314
1294.50000    0.19383
1295.00000    0.19267
1295.50000    0.18971
1296.00000    0.18501
1296.50000    0.17869
1297.00000    0.17087
1297.50000    0.16171
1298.00000    0.15137
1298.50000    0.14002
1299.00000    0.12785
1299.50000    0.11501
1300.00000    0.10167
1300.50000    0.08797
1301.00000    0.07405
1301.50000    0.06002
1302.00000    0.04598
1302.50000    0.03201
1303.00000    0.01820
1303.50000    0.00459
1304.00000   -0.00875
1304.50000   -0.02177
1305.00000   -0.03441
1305.50000   -0.04662
1306.00000   -0.05833
1306.50000   -0.06948
1307.00000   -0.07997
1307.50000   -0.08973
1308.00000   -0.09867
1308.50000   -0.10668
1309.00000   -0.11369
1309.50000   -0.11959
1310.00000   -0.12430
1310.50000   -0.12774
1311.00000   -0.12987
1311.50000   -0.13063
1312.00000   -0.13001
1312.50000   -0.12801
1313.00000   -0.12464
1313.50000   -0.11997
1314.00000   -0.11405
1314.50000   -0.10697
1315.00000   -0.09885
1315.50000   -0.08979
1316.00000   -0.07992
1316.50000   -0.06940
1317.00000   -0.05837
1317.50000   -0.04697
1318.00000   -0.03535
1318.50000   -0.02367
1319.00000   -0.01206
1319.50000   -0.00066
1320.00000    0.01039
1320.50000    0.02097
1321.00000    0.03098
1321.50000    0.04031
1322.00000    0.04888
1322.50000    0.05660
1323.00000    0.06343
1323.50000    0.06931
1324.00000    0.07424
1324.50000    0.07819
1325.00000    0.08120
1325.50000    0.08330
1326.00000    0.08457
1326.50000    0.08509
1327.00000    0.08498
1327.50000    0.08438
1328.00000    0.08343
1328.50000    0.08231
1329.00000    0.08121
1329.50000    0.08032
1330.00000    0.07982
1330.50000    0.07991
1331.00000    0.08076
1331.50000    0.08252
1332.00000    0.08533
1332.50000    0.08929
1333.00000    0.09448
1333.50000    0.10094
1334.00000    0.10867
1334.50000    0.11764
1335.00000    0.12778
1335.50000    0.13900
1336.00000    0.15116
1336.50000    0.16413
1337.00000    0.17774
1337.50000    0.19181
1338.00000    0.20616
1338.50000    0.22060
1339.00000    0.23497
1339.50000    0.24910
1340.00000    0.26283
1340.50000    0.27604
1341.00000    0.28861
1341.50000    0.30044
1342.00000    0.31147
1342.50000    0.32161
1343.00000    0.33084
1343.50000    0.33912
1344.00000    0.34643
1344.50000    0.35275
1345.00000    0.35807
1345.50000    0.36238
1346.00000    0.36568
1346.50000    0.36796
1347.00000    0.36921
1347.50000    0.36942
1348.00000    0.36858
1348.50000    0.36668
1349.00000    0.36372
1349.50000    0.35967
1350.00000    0.35455
1350.50000    0.34836
1351.00000    0.34113
1351.50000    0.33286
1352.00000    0.32361
1352.50000    0.31341
1353.00000    0.30233
1353.50000    0.29044
1354.00000    0.27781
1354.50000    0.26453
1355.00000    0.25070
1355.50000    0.23641
1356.00000    0.22177
1356.50000    0.20688
1357.00000    0.19184
1357.50000    0.17675
1358.00000    0.16169
1358.50000    0.14676
1359.00000    0.13202
1359.50000    0.11754
1360.00000    0.10339
1360.50000    0.08961
1361.00000    0.07626
1361.50000    0.06335
1362.00000    0.05094
1362.50000    0.03904
1363.00000    0.02769
1363.50000    0.01691
1364.00000    0.00672
1364.50000   -0.00284
1365.00000   -0.01174
1365.50000   -0.01994
1366.00000   -0.02740
1366.50000   -0.03408
1367.00000   -0.03992
1367.50000   -0.04489
1368.00000   -0.04893
1368.50000   -0.05200
1369.00000   -0.05406
1369.50000   -0.05510
1370.00000   -0.05511
1370.50000   -0.05408
1371.00000   -0.05204
1371.50000   -0.04903
1372.00000   -0.04513
1372.50000   -0.04041
1373.00000   -0.03500
1373.50000   -0.02902
1374.00000   -0.02262
1374.50000   -0.01595
1375.00000   -0.00921
1375.50000   -0.00256
1376.00000    0.00382
1376.50000    0.00976
1377.00000    0.01511
1377.50000    0.01972
1378.00000    0.02348
1378.50000    0.02631
1379.00000    0.02814
1379.50000    0.02896
1380.00000    0.02878
1380.50000    0.02763
1381.00000    0.02560
1381.50000    0.02279
1382.00000    0.01933
1382.50000    0.01535
1383.00000    0.01103
1383.50000    0.00652
1384.00000    0.00200
1384.50000   -0.00238
1385.00000   -0.00646
1385.50000   -0.01012
1386.00000   -0.01325
1386.50000   -0.01576
1387.00000   -0.01760
1387.50000   -0.01874
1388.00000   -0.01917
1388.50000   -0.01892
1389.00000   -0.01805
1389.50000   -0.01662
1390.00000   -0.01473
1390.50000   -0.01248
1391.00000   -0.00999
1391.50000   -0.00737
1392.00000   -0.00475
1392.50000   -0.00224
1393.00000    0.00005
1393.50000    0.00202
1394.00000    0.00358
1394.50000    0.00468
1395.00000    0.00526
1395.50000    0.00528
1396.00000    0.00474
1396.50000    0.00363
1397.00000    0.00198
1397.50000   -0.00018
1398.00000   -0.00281
1398.50000   -0.00584
1399.00000   -0.00921
1399.50000   -0.01286
1400.00000   -0.01669
1400.50000   -0.02065
1401.00000   -0.02465
1401.50000   -0.02861
1402.00000   -0.03248
1402.50000   -0.03619
1403.00000   -0.03968
1403.50000   -0.04291
1404.00000   -0.04583
1404.50000   -0.04840
1405.00000   -0.05060
1405.50000   -0.05240
1406.00000   -0.05377
1406.50000   -0.05469
1407.00000   -0.05515
1407.50000   -0.05511
1408.00000   -0.05457
1408.50000   -0.05350
1409.00000   -0.05189
1409.50000   -0.04970
1410.00000   -0.04692
1410.50000   -0.04354
1411.00000   -0.03954
1411.50000   -0.03493
1412.00000   -0.02970
1412.50000   -0.02388
1413.00000   -0.01749
1413.50000   -0.01058
1414.00000   -0.00320
1414.50000    0.00456
1415.00000    0.01261
1415.50000    0.02086
1416.00000    0.02918
1416.50000    0.03746
1417.00000    0.04556
1417.50000    0.05335
1418.00000    0.06070
1418.50000    0.06749
1419.00000    0.07362
1419.50000    0.07897
1420.00000    0.08347
1420.50000    0.08706
1421.00000    0.08970
1421.50000    0.09137
1422.00000    0.09209
1422.50000    0.09188
1423.00000    0.09078
1423.50000    0.08886
1424.00000    0.08620
1424.50000    0.08287
1425.00000    0.07898
1425.50000    0.07461
1426.00000    0.06985
1426.50000    0.06479
1427.00000    0.05952
1427.50000    0.05410
1428.00000    0.04861
1428.50000    0.04309
1429.00000    0.03759
1429.50000    0.03215
1430.00000    0.02680
1430.50000    0.02156
1431.00000    0.01647
1431.50000    0.01153
1432.00000    0.00676
1432.50000    0.00218
1433.00000   -0.00220
1433.50000   -0.00636
1434.00000   -0.01030
1434.50000   -0.01400
1435.00000   -0.01747
1435.50000   -0.02068
1436.00000   -0.02367
1436.50000   -0.02642
1437.00000   -0.02896
1437.50000   -0.03131
1438.00000   -0.03350
1438.50000   -0.03557
1439.00000   -0.03753
1439.50000   -0.03944
1440.00000   -0.04133
1440.50000   -0.04323
1441.00000   -0.04515
1441.50000   -0.04713
1442.00000   -0.04915
1442.50000   -0.05120
1443.00000   -0.05328
1443.50000   -0.05532
1444.00000   -0.05730
1444.50000   -0.05913
1445.00000   -0.06074
1445.50000   -0.06206
1446.00000   -0.06300
1446.50000   -0.06347
1447.00000   -0.06339
1447.50000   -0.06267
1448.00000   -0.06125
1448.50000   -0.05908
1449.00000   -0.05610
1449.50000   -0.05230
1450.00000   -0.04767
1450.50000   -0.04220
1451.00000   -0.03594
1451.50000   -0.02891
1452.00000   -0.02118
1452.50000   -0.01281
1453.00000   -0.00388
1453.50000    0.00552
1454.00000    0.01532
1454.50000    0.02542
1455.00000    0.03573
1455.50000    0.04615
1456.00000    0.05660
1456.50000    0.06699
1457.00000    0.07723
1457.50000    0.08725
1458.00000    0.09697
1458.50000    0.10630
1459.00000    0.11517
1459.50000    0.12352
1460.00000    0.13127
1460.50000    0.13834
1461.00000    0.14468
1461.50000    0.15022
1462.00000    0.15489
1462.50000    0.15864
1463.00000    0.16142
1463.50000    0.16317
1464.00000    0.16386
1464.50000    0.16346
1465.00000    0.16195
1465.50000    0.15930
1466.00000    0.15553
1466.50000    0.15064
1467.00000    0.14466
1467.50000    0.13762
1468.00000    0.12956
1468.50000    0.12056
1469.00000    0.11069
1469.50000    0.10003
1470.00000    0.08868
1470.50000    0.07676
1471.00000    0.06438
1471.50000    0.05167
1472.00000    0.03877
1472.50000    0.02582
1473.00000    0.01297
1473.50000    0.00037
1474.00000   -0.01183
1474.50000   -0.02350
1475.00000   -0.03451
1475.50000   -0.04471
1476.00000   -0.05401
1476.50000   -0.06231
1477.00000   -0.06954
1477.50000   -0.07565
1478.00000   -0.08060
1478.50000   -0.08438
1479.00000   -0.08703
1479.50000   -0.08858
1480.00000   -0.08910
1480.50000   -0.08867
1481.00000   -0.08738
1481.50000   -0.08536
1482.00000   -0.08272
1482.50000   -0.07957
1483.00000   -0.07603
1483.50000   -0.07219
1484.00000   -0.06815
1484.50000   -0.06398
1485.00000   -0.05973
1485.50000   -0.05542
1486.00000   -0.05105
1486.50000   -0.04661
1487.00000   -0.04204
1487.50000   -0.03731
1488.00000   -0.03233
1488.50000   -0.02703
1489.00000   -0.02133
1489.50000   -0.01515
1490.00000   -0.00843
1490.50000   -0.00112
1491.00000    0.00681
1491.50000    0.01534
1492.00000    0.02445
1492.50000    0.03408
1493.00000    0.04413
1493.50000    0.05448
1494.00000    0.06497
1494.50000    0.07542
1495.00000    0.08566
1495.50000    0.09546
1496.00000    0.10464
1496.50000    0.11297
1497.00000    0.12027
1497.50000    0.12636
1498.00000    0.13109
1498.50000    0.13434
1499.00000    0.13603
1499.50000    0.13611
1500.00000    0.13458
1500.50000    0.13147
1501.00000    0.12687
1501.50000    0.12089
1502.00000    0.11369
1502.50000    0.10545
1503.00000    0.09638
1503.50000    0.08670
1504.00000    0.07663
1504.50000    0.06641
1505.00000    0.05626
1505.50000    0.04639
1506.00000    0.03698
1506.50000    0.02821
1507.00000    0.02019
1507.50000    0.01304
1508.00000    0.00681
1508.50000    0.00153
1509.00000   -0.00280
1509.50000   -0.00621
1510.00000   -0.00878
1510.50000   -0.01060
1511.00000   -0.01176
1511.50000   -0.01239
1512.00000   -0.01262
1512.50000   -0.01256
1513.00000   -0.01235
1513.50000   -0.01208
1514.00000   -0.01185
1514.50000   -0.01173
1515.00000   -0.01178
1515.50000   -0.01201
1516.00000   -0.01245
1516.50000   -0.01308
1517.00000   -0.01387
1517.50000   -0.01478
1518.00000   -0.01574
1518.50000   -0.01671
1519.00000   -0.01761
1519.50000   -0.01838
1520.00000   -0.01897
1520.50000   -0.01934
1521.00000   -0.01946
1521.50000   -0.01932
1522.00000   -0.01891
1522.50000   -0.01826
1523.00000   -0.01740
1523.50000   -0.01639
1524.00000   -0.01528
1524.50000   -0.01414
1525.00000   -0.01305
1525.50000   -0.01207
1526.00000   -0.01126
1526.50000   -0.01070
1527.00000   -0.01041
1527.50000   -0.01044
1528.00000   -0.01080
1528.50000   -0.01148
1529.00000   -0.01248
1529.50000   -0.01374
1530.00000   -0.01523
1530.50000   -0.01687
1531.00000   -0.01859
1531.50000   -0.02031
1532.00000   -0.02194
1532.50000   -0.02339
1533.00000   -0.02458
1533.50000   -0.02544
1534.00000   -0.02591
1534.50000   -0.02593
1535.00000   -0.02547
1535.50000   -0.02452
1536.00000   -0.02308
1536.50000   -0.02118
1537.00000   -0.01885
1537.50000   -0.01615
1538.00000   -0.01316
1538.50000   -0.00996
1539.00000   -0.00666
1539.50000   -0.00334
1540.00000   -0.00011
1540.50000    0.00292
1541.00000    0.00566
1541.50000    0.00801
1542.00000    0.00991
1542.50000    0.01128
1543.00000    0.01209
1543.50000    0.01231
1544.00000    0.01194
1544.50000    0.01100
1545.00000    0.00952
1545.50000    0.00757
1546.00000    0.00522
1546.50000    0.00255
1547.00000   -0.00034
1547.50000   -0.00334
1548.00000   -0.00636
1548.50000   -0.00929
1549.00000   -0.01205
1549.50000   -0.01454
1550.00000   -0.01670
1550.50000   -0.01848
1551.00000   -0.01985
1551.50000   -0.02080
1552.00000   -0.02132
1552.50000   -0.02146
1553.00000   -0.02124
1553.50000   -0.02072
1554.00000   -0.01997
1554.50000   -0.01906
1555.00000   -0.01806
1555.50000   -0.01703
1556.00000   -0.01605
1556.50000   -0.01514
1557.00000   -0.01436
1557.50000   -0.01371
1558.00000   -0.01317
1558.50000   -0.01273
1559.00000   -0.01232
1559.50000   -0.01187
1560.00000   -0.01126
1560.50000   -0.01036
1561.00000   -0.00904
1561.50000   -0.00711
1562.00000   -0.00440
1562.50000   -0.00069
1563.00000    0.00421
1563.50000    0.01052
1564.00000    0.01848
1564.50000    0.02831
1565.00000    0.04023
1565.50000    0.05445
1566.00000    0.07121
1566.50000    0.09070
1567.00000    0.11312
1567.50000    0.13865
1568.00000    0.16746
1568.50000    0.19972
1569.00000    0.23558
1569.50000    0.27515
1570.00000    0.31858
1570.50000    0.36596
1571.00000    0.41741
1571.50000    0.47302
1572.00000    0.53288
1572.50000    0.59708
1573.00000    0.66568
1573.50000    0.73877
1574.00000    0.81641
1574.50000    0.89866
1575.00000    0.98557
1575.50000    1.07716
1576.00000    1.17343
1576.50000    1.27436
1577.00000    1.37986
1577.50000    1.48982
1578.00000    1.60404
1578.50000    1.72225
1579.00000    1.84411
1579.50000    1.96915
1580.00000    2.09682
1580.50000    2.22645
1581.00000    2.35726
1581.50000    2.48835
1582.00000    2.61872
1582.50000    2.74727
1583.00000    2.87280
1583.50000    2.99406
1584.00000    3.10975
1584.50000    3.21855
1585.00000    3.31912
1585.50000    3.41020
1586.00000    3.49056
1586.50000    3.55907
1587.00000    3.61476
1587.50000    3.65676
1588.00000    3.68444
1588.50000    3.69731
1589.00000    3.69514
1589.50000    3.67789
1590.00000    3.64575
1590.50000    3.59913
1591.00000    3.53864
1591.50000    3.46509
1592.00000    3.37943
1592.50000    3.28277
1593.00000    3.17634
1593.50000    3.06141
1594.00000    2.93936
1594.50000    2.81153
1595.00000    2.67931
1595.50000    2.54401
1596.00000    2.40690
1596.50000    2.26919
1597.00000    2.13196
1597.50000    1.99621
1598.00000    1.86283
1598.50000    1.73257
1599.00000    1.60607
1599.50000    1.48387
1600.00000    1.36638
1600.50000    1.25393
1601.00000    1.14675
1601.50000    1.04497
1602.00000    0.94869
1602.50000    0.85791
1603.00000    0.77260
1603.50000    0.69270
1604.00000    0.61809
1604.50000    0.54864
1605.00000    0.48421
1605.50000    0.42461
1606.00000    0.36968
1606.50000    0.31921
1607.00000    0.27302
1607.50000    0.23091
1608.00000    0.19268
1608.50000    0.15814
1609.00000    0.12708
1609.50000    0.09931
1610.00000    0.07466
1610.50000    0.05293
1611.00000    0.03397
1611.50000    0.01761
1612.00000    0.00370
1612.50000   -0.00790
1613.00000   -0.01733
1613.50000   -0.02471
1614.00000   -0.03016
1614.50000   -0.03382
1615.00000   -0.03579
1615.50000   -0.03619
1616.00000   -0.03516
1616.50000   -0.03283
1617.00000   -0.02933
1617.50000   -0.02482
1618.00000   -0.01946
1618.50000   -0.01340
1619.00000   -0.00684
1619.50000    0.00007
1620.00000    0.00714
1620.50000    0.01419
1621.00000    0.02108
1621.50000    0.02765
1622.00000    0.03376
1622.50000    0.03933
1623.00000    0.04427
1623.50000    0.04854
1624.00000    0.05212
1624.50000    0.05506
1625.00000    0.05740
1625.50000    0.05923
1626.00000    0.06069
1626.50000    0.06190
1627.00000    0.06304
1627.50000    0.06427
1628.00000    0.06575
1628.50000    0.06767
1629.00000    0.07017
1629.50000    0.07338
1630.00000    0.07741
1630.50000    0.08233
1631.00000    0.08818
1631.50000    0.09495
1632.00000    0.10259
1632.50000    0.11102
1633.00000    0.12011
1633.50000    0.12970
1634.00000    0.13961
1634.50000    0.14960
1635.00000    0.15946
1635.50000    0.16894
1636.00000    0.17779
1636.50000    0.18578
1637.00000    0.19269
1637.50000    0.19831
1638.00000    0.20247
1638.50000    0.20500
1639.00000    0.20581
1639.50000    0.20480
1640.00000    0.20192
1640.50000    0.19716
1641.00000    0.19055
1641.50000    0.18212
1642.00000    0.17195
1642.50000    0.16014
1643.00000    0.14681
1643.50000    0.13210
1644.00000    0.11615
1644.50000    0.09912
1645.00000    0.08119
1645.50000    0.06251
1646.00000    0.04327
1646.50000    0.02366
1647.00000    0.00384
1647.50000   -0.01598
1648.00000   -0.03561
1648.50000   -0.05486
1649.00000   -0.07354
1649.50000   -0.09143
1650.00000   -0.10834
1650.50000   -0.12405
1651.00000   -0.13838
1651.50000   -0.15112
1652.00000   -0.16209
1652.50000   -0.17112
1653.00000   -0.17807
1653.50000   -0.18280
1654.00000   -0.18523
1654.50000   -0.18529
1655.00000   -0.18297
1655.50000   -0.17830
1656.00000   -0.17133
1656.50000   -0.16220
1657.00000   -0.15107
1657.50000   -0.13813
1658.00000   -0.12365
1658.50000   -0.10791
1659.00000   -0.09123
1659.50000   -0.07393
1660.00000   -0.05639
1660.50000   -0.03895
1661.00000   -0.02195
1661.50000   -0.00573
1662.00000    0.00939
1662.50000    0.02316
1663.00000    0.03533
1663.50000    0.04572
1664.00000    0.05419
1664.50000    0.06065
1665.00000    0.06508
1665.50000    0.06750
1666.00000    0.06796
1666.50000    0.06658
1667.00000    0.06352
1667.50000    0.05895
1668.00000    0.05309
1668.50000    0.04617
1669.00000    0.03843
1669.50000    0.03011
1670.00000    0.02148
1670.50000    0.01276
1671.00000    0.00420
1671.50000   -0.00399
1672.00000   -0.01161
1672.50000   -0.01847
1673.00000   -0.02442
1673.50000   -0.02933
1674.00000   -0.03307
1674.50000   -0.03556
1675.00000   -0.03673
1675.50000   -0.03656
1676.00000   -0.03502
1676.50000   -0.03213
1677.00000   -0.02793
1677.50000   -0.02250
1678.00000   -0.01592
1678.50000   -0.00834
1679.00000    0.00011
1679.50000    0.00924
1680.00000    0.01885
1680.50000    0.02872
1681.00000    0.03861
1681.50000    0.04828
1682.00000    0.05748
1682.50000    0.06595
1683.00000    0.07347
1683.50000    0.07980
1684.00000    0.08477
1684.50000    0.08819
1685.00000    0.08996
1685.50000    0.08998
1686.00000    0.08824
1686.50000    0.08473
1687.00000    0.07954
1687.50000    0.07278
1688.00000    0.06461
1688.50000    0.05523
1689.00000    0.04487
1689.50000    0.03382
1690.00000    0.02234
1690.50000    0.01075
1691.00000   -0.00066
1691.50000   -0.01159
1692.00000   -0.02173
1692.50000   -0.03083
1693.00000   -0.03863
1693.50000   -0.04492
1694.00000   -0.04949
1694.50000   -0.05221
1695.00000   -0.05296
1695.50000   -0.05166
1696.00000   -0.04827
1696.50000   -0.04282
1697.00000   -0.03533
1697.50000   -0.02589
1698.00000   -0.01462
1698.50000   -0.00167
1699.00000    0.01277
1699.50000    0.02851
1700.00000    0.04530
1700.50000    0.06290
1701.00000    0.08104
1701.50000    0.09944
1702.00000    0.11783
1702.50000    0.13593
1703.00000    0.15348
1703.50000    0.17022
1704.00000    0.18592
1704.50000    0.20037
1705.00000    0.21341
1705.50000    0.22488
1706.00000    0.23469
1706.50000    0.24276
1707.00000    0.24907
1707.50000    0.25362
1708.00000    0.25644
1708.50000    0.25760
1709.00000    0.25718
1709.50000    0.25528
1710.00000    0.25202
1710.50000    0.24750
1711.00000    0.24182
1711.50000    0.23510
1712.00000    0.22740
1712.50000    0.21880
1713.00000    0.20934
1713.50000    0.19906
1714.00000    0.18798
1714.50000    0.17610
1715.00000    0.16344
1715.50000    0.15001
1716.00000    0.13582
1716.50000    0.12093
1717.00000    0.10538
1717.50000    0.08926
1718.00000    0.07270
1718.50000    0.05584
1719.00000    0.03886
1719.50000    0.02197
1720.00000    0.00540
1720.50000   -0.01059
1721.00000   -0.02575
1721.50000   -0.03983
1722.00000   -0.05257
1722.50000   -0.06377
1723.00000   -0.07322
1723.50000   -0.08079
1724.00000   -0.08638
1724.50000   -0.08996
1725.00000   -0.09154
1725.50000   -0.09122
1726.00000   -0.08911
1726.50000   -0.08543
1727.00000   -0.08040
1727.50000   -0.07428
1728.00000   -0.06737
1728.50000   -0.05997
1729.00000   -0.05236
1729.50000   -0.04485
1730.00000   -0.03767
1730.50000   -0.03106
1731.00000   -0.02519
1731.50000   -0.02019
1732.00000   -0.01613
1732.50000   -0.01304
1733.00000   -0.01089
1733.50000   -0.00961
1734.00000   -0.00908
1734.50000   -0.00916
1735.00000   -0.00967
1735.50000   -0.01044
1736.00000   -0.01128
1736.50000   -0.01202
1737.00000   -0.01248
1737.50000   -0.01254
1738.00000   -0.01208
1738.50000   -0.01104
1739.00000   -0.00938
1739.50000   -0.00710
1740.00000   -0.00423
1740.50000   -0.00084
1741.00000    0.00298
1741.50000    0.00712
1742.00000    0.01146
1742.50000    0.01587
1743.00000    0.02021
1743.50000    0.02437
1744.00000    0.02822
1744.50000    0.03168
1745.00000    0.03466
1745.50000    0.03710
1746.00000    0.03897
1746.50000    0.04024
1747.00000    0.04093
1747.50000    0.04105
1748.00000    0.04063
1748.50000    0.03974
1749.00000    0.03843
1749.50000    0.03676
1750.00000    0.03482
1750.50000    0.03268
1751.00000    0.03043
1751.50000    0.02815
1752.00000    0.02592
1752.50000    0.02385
1753.00000    0.02201
1753.50000    0.02050
1754.00000    0.01939
1754.50000    0.01879
1755.00000    0.01876
1755.50000    0.01937
1756.00000    0.02070
1756.50000    0.02280
1757.00000    0.02568
1757.50000    0.02938
1758.00000    0.03386
1758.50000    0.03911
1759.00000    0.04506
1759.50000    0.05160
1760.00000    0.05863
1760.50000    0.06599
1761.00000    0.07351
1761.50000    0.08100
1762.00000    0.08826
1762.50000    0.09507
1763.00000    0.10123
1763.50000    0.10653
1764.00000    0.11079
1764.50000    0.11383
1765.00000    0.11551
1765.50000    0.11574
1766.00000    0.11446
1766.50000    0.11162
1767.00000    0.10726
1767.50000    0.10142
1768.00000    0.09421
1768.50000    0.08575
1769.00000    0.07619
1769.50000    0.06572
1770.00000    0.05452
1770.50000    0.04281
1771.00000    0.03078
1771.50000    0.01865
1772.00000    0.00659
1772.50000   -0.00519
1773.00000   -0.01655
1773.50000   -0.02732
1774.00000   -0.03739
1774.50000   -0.04664
1775.00000   -0.05499
1775.50000   -0.06236
1776.00000   -0.06871
1776.50000   -0.07401
1777.00000   -0.07823
1777.50000   -0.08138
1778.00000   -0.08346
1778.50000   -0.08451
1779.00000   -0.08454
1779.50000   -0.08363
1780.00000   -0.08181
1780.50000   -0.07917
1781.00000   -0.07580
1781.50000   -0.07178
1782.00000   -0.06723
1782.50000   -0.06226
1783.00000   -0.05701
1783.50000   -0.05160
1784.00000   -0.04617
1784.50000   -0.04086
1785.00000   -0.03581
1785.50000   -0.03114
1786.00000   -0.02697
1786.50000   -0.02342
1787.00000   -0.02056
1787.50000   -0.01848
1788.00000   -0.01723
1788.50000   -0.01682
1789.00000   -0.01727
1789.50000   -0.01855
1790.00000   -0.02063
1790.50000   -0.02343
1791.00000   -0.02689
1791.50000   -0.03089
1792.00000   -0.03533
1792.50000   -0.04009
1793.00000   -0.04504
1793.50000   -0.05005
1794.00000   -0.05500
1794.50000   -0.05977
1795.00000   -0.06425
1795.50000   -0.06834
1796.00000   -0.07195
1796.50000   -0.07503
1797.00000   -0.07752
1797.50000   -0.07938
1798.00000   -0.08060
1798.50000   -0.08118
1799.00000   -0.08113
1799.50000   -0.08047
1800.00000   -0.07923
1800.50000   -0.07745
1801.00000   -0.07516
1801.50000   -0.07242
1802.00000   -0.06925
1802.50000   -0.06567
1803.00000   -0.06172
1803.50000   -0.05740
1804.00000   -0.05271
1804.50000   -0.04764
1805.00000   -0.04217
1805.50000   -0.03625
1806.00000   -0.02986
1806.50000   -0.02293
1807.00000   -0.01542
1807.50000   -0.00727
1808.00000    0.00157
1808.50000    0.01113
1809.00000    0.02145
1809.50000    0.03256
1810.00000    0.04444
1810.50000    0.05709
1811.00000    0.07045
1811.50000    0.08446
1812.00000    0.09904
1812.50000    0.11408
1813.00000    0.12945
1813.50000    0.14499
1814.00000    0.16055
1814.50000    0.17595
1815.00000    0.19101
1815.50000    0.20556
1816.00000    0.21941
1816.50000    0.23240
1817.00000    0.24437
1817.50000    0.25517
1818.00000    0.26469
1818.50000    0.27283
1819.00000    0.27952
1819.50000    0.28472
1820.00000    0.28841
1820.50000    0.29060
1821.00000    0.29134
1821.50000    0.29067
1822.00000    0.28868
1822.50000    0.28547
1823.00000    0.28114
1823.50000    0.27582
1824.00000    0.26961
1824.50000    0.26263
1825.00000    0.25500
1825.50000    0.24679
1826.00000    0.23811
1826.50000    0.22901
1827.00000    0.21953
1827.50000    0.20973
1828.00000    0.19960
1828.50000    0.18915
1829.00000    0.17838
1829.50000    0.16728
1830.00000    0.15584
1830.50000    0.14405
1831.00000    0.13191
1831.50000    0.11945
1832.00000    0.10669
1832.50000    0.09371
1833.00000    0.08058
1833.50000    0.06740
1834.00000    0.05430
1834.50000    0.04142
1835.00000    0.02893
1835.50000    0.01700
1836.00000    0.00579
1836.50000   -0.00451
1837.00000   -0.01375
1837.50000   -0.02178
1838.00000   -0.02848
1838.50000   -0.03377
1839.00000   -0.03758
1839.50000   -0.03990
1840.00000   -0.04075
1840.50000   -0.04021
1841.00000   -0.03836
1841.50000   -0.03535
1842.00000   -0.03134
1842.50000   -0.02650
1843.00000   -0.02105
1843.50000   -0.01517
1844.00000   -0.00907
1844.50000   -0.00293
1845.00000    0.00309
1845.50000    0.00887
1846.00000    0.01428
1846.50000    0.01927
1847.00000    0.02381
1847.50000    0.02790
1848.00000    0.03158
1848.50000    0.03492
1849.00000    0.03801
1849.50000    0.04097
1850.00000    0.04391
1850.50000    0.04696
1851.00000    0.05024
1851.50000    0.05384
1852.00000    0.05786
1852.50000    0.06236
1853.00000    0.06737
1853.50000    0.07289
1854.00000    0.07888
1854.50000    0.08528
1855.00000    0.09197
1855.50000    0.09884
1856.00000    0.10572
1856.50000    0.11244
1857.00000    0.11882
1857.50000    0.12466
1858.00000    0.12976
1858.50000    0.13393
1859.00000    0.13701
1859.50000    0.13884
1860.00000    0.13930
1860.50000    0.13828
1861.00000    0.13573
1861.50000    0.13161
1862.00000    0.12594
1862.50000    0.11876
1863.00000    0.11014
1863.50000    0.10022
1864.00000    0.08914
1864.50000    0.07707
1865.00000    0.06422
1865.50000    0.05082
1866.00000    0.03709
1866.50000    0.02328
1867.00000    0.00964
1867.50000   -0.00359
1868.00000   -0.01618
1868.50000   -0.02791
1869.00000   -0.03858
1869.50000   -0.04803
1870.00000   -0.05612
1870.50000   -0.06275
1871.00000   -0.06785
1871.50000   -0.07139
1872.00000   -0.07338
1872.50000   -0.07388
1873.00000   -0.07295
1873.50000   -0.07073
1874.00000   -0.06734
1874.50000   -0.06296
1875.00000   -0.05777
1875.50000   -0.05196
1876.00000   -0.04573
1876.50000   -0.03927
1877.00000   -0.03277
1877.50000   -0.02640
1878.00000   -0.02034
1878.50000   -0.01470
1879.00000   -0.00962
1879.50000   -0.00518
1880.00000   -0.00144
1880.50000    0.00155
1881.00000    0.00376
1881.50000    0.00520
1882.00000    0.00589
1882.50000    0.00586
1883.00000    0.00515
1883.50000    0.00383
1884.00000    0.00195
1884.50000   -0.00042
1885.00000   -0.00320
1885.50000   -0.00633
1886.00000   -0.00973
1886.50000   -0.01332
1887.00000   -0.01704
1887.50000   -0.02081
1888.00000   -0.02455
1888.50000   -0.02818
1889.00000   -0.03163
1889.50000   -0.03483
1890.00000   -0.03770
1890.50000   -0.04016
1891.00000   -0.04214
1891.50000   -0.04359
1892.00000   -0.04445
1892.50000   -0.04466
1893.00000   -0.04420
1893.50000   -0.04305
1894.00000   -0.04119
1894.50000   -0.03863
1895.00000   -0.03540
1895.50000   -0.03154
1896.00000   -0.02709
1896.50000   -0.02211
1897.00000   -0.01667
1897.50000   -0.01083
1898.00000   -0.00465
1898.50000    0.00180
1899.00000    0.00847
1899.50000    0.01533
1900.00000    0.02234
1900.50000    0.02951
1901.00000    0.03683
1901.50000    0.04434
1902.00000    0.05206
1902.50000    0.06006
1903.00000    0.06838
1903.50000    0.07708
1904.00000    0.08622
1904.50000    0.09586
1905.00000    0.10603
1905.50000    0.11674
1906.00000    0.12801
1906.50000    0.13979
1907.00000    0.15204
1907.50000    0.16468
1908.00000    0.17760
1908.50000    0.19067
1909.00000    0.20374
1909.50000    0.21666
1910.00000    0.22924
1910.50000    0.24132
1911.00000    0.25272
1911.50000    0.26329
1912.00000    0.27289
1912.50000    0.28140
1913.00000    0.28875
1913.50000    0.29487
1914.00000    0.29973
1914.50000    0.30335
1915.00000    0.30576
1915.50000    0.30702
1916.00000    0.30722
1916.50000    0.30646
1917.00000    0.30484
1917.50000    0.30247
1918.00000    0.29946
1918.50000    0.29592
1919.00000    0.29192
1919.50000    0.28752
1920.00000    0.28278
1920.50000    0.27770
1921.00000    0.27229
1921.50000    0.26652
1922.00000    0.26035
1922.50000    0.25372
1923.00000    0.24657
1923.50000    0.23882
1924.00000    0.23041
1924.50000    0.22127
1925.00000    0.21135
1925.50000    0.20062
1926.00000    0.18907
1926.50000    0.17670
1927.00000    0.16355
1927.50000    0.14967
1928.00000    0.13513
1928.50000    0.12002
1929.00000    0.10445
1929.50000    0.08853
1930.00000    0.07240
1930.50000    0.05617
1931.00000    0.03997
1931.50000    0.02391
1932.00000    0.00812
1932.50000   -0.00730
1933.00000   -0.02226
1933.50000   -0.03667
1934.00000   -0.05043
1934.50000   -0.06348
1935.00000   -0.07573
1935.50000   -0.08712
1936.00000   -0.09756
1936.50000   -0.10697
1937.00000   -0.11528
1937.50000   -0.12241
1938.00000   -0.12826
1938.50000   -0.13276
1939.00000   -0.13581
1939.50000   -0.13736
1940.00000   -0.13733
1940.50000   -0.13569
1941.00000   -0.13239
1941.50000   -0.12745
1942.00000   -0.12089
1942.50000   -0.11277
1943.00000   -0.10319
1943.50000   -0.09228
1944.00000   -0.08019
1944.50000   -0.06713
1945.00000   -0.05332
1945.50000   -0.03902
1946.00000   -0.02447
1946.50000   -0.00997
1947.00000    0.00421
1947.50000    0.01779
1948.00000    0.03053
1948.50000    0.04217
1949.00000    0.05253
1949.50000    0.06141
1950.00000    0.06870
1950.50000    0.07430
1951.00000    0.07818
1951.50000    0.08033
1952.00000    0.08080
1952.50000    0.07969
1953.00000    0.07713
1953.50000    0.07329
1954.00000    0.06837
1954.50000    0.06258
1955.00000    0.05618
1955.50000    0.04941
1956.00000    0.04254
1956.50000    0.03582
1957.00000    0.02951
1957.50000    0.02385
1958.00000    0.01907
1958.50000    0.01535
1959.00000    0.01289
1959.50000    0.01182
1960.00000    0.01227
1960.50000    0.01430
1961.00000    0.01796
1961.50000    0.02327
1962.00000    0.03019
1962.50000    0.03865
1963.00000    0.04857
1963.50000    0.05980
1964.00000    0.07220
1964.50000    0.08557
1965.00000    0.09971
1965.50000    0.11440
1966.00000    0.12940
1966.50000    0.14448
1967.00000    0.15939
1967.50000    0.17391
1968.00000    0.18779
1968.50000    0.20085
1969.00000    0.21288
1969.50000    0.22373
1970.00000    0.23325
1970.50000    0.24134
1971.00000    0.24790
1971.50000    0.25290
1972.00000    0.25631
1972.50000    0.25812
1973.00000    0.25837
1973.50000    0.25711
1974.00000    0.25441
1974.50000    0.25035
1975.00000    0.24502
1975.50000    0.23853
1976.00000    0.23098
1976.50000    0.22249
1977.00000    0.21316
1977.50000    0.20312
1978.00000    0.19245
1978.50000    0.18126
1979.00000    0.16966
1979.50000    0.15772
1980.00000    0.14555
1980.50000    0.13323
1981.00000    0.12083
1981.50000    0.10844
1982.00000    0.09614
1982.50000    0.08400
1983.00000    0.07209
1983.50000    0.06050
1984.00000    0.04928
1984.50000    0.03851
1985.00000    0.02825
1985.50000    0.01857
1986.00000    0.00953
1986.50000    0.00119
1987.00000   -0.00642
1987.50000   -0.01324
1988.00000   -0.01925
1988.50000   -0.02441
1989.00000   -0.02870
1989.50000   -0.03214
1990.00000   -0.03470
1990.50000   -0.03642
1991.00000   -0.03732
1991.50000   -0.03743
1992.00000   -0.03681
1992.50000   -0.03551
1993.00000   -0.03361
1993.50000   -0.03119
1994.00000   -0.02834
1994.50000   -0.02516
1995.00000   -0.02175
1995.50000   -0.01822
1996.00000   -0.01467
1996.50000   -0.01123
1997.00000   -0.00798
1997.50000   -0.00504
1998.00000   -0.00248
1998.50000   -0.00038
1999.00000    0.00119
1999.50000    0.00219
2000.00000    0.00259
2000.50000    0.00238
2001.00000    0.00156
2001.50000    0.00018
2002.00000   -0.00173
2002.50000   -0.00410
2003.00000   -0.00685
2003.50000   -0.00988
2004.00000   -0.01309
2004.50000   -0.01636
2005.00000   -0.01957
2005.50000   -0.02259
2006.00000   -0.02530
2006.50000   -0.02757
2007.00000   -0.02930
2007.50000   -0.03036
2008.00000   -0.03068
2008.50000   -0.03016
2009.00000   -0.02875
2009.50000   -0.02641
2010.00000   -0.02311
2010.50000   -0.01887
2011.00000   -0.01370
2011.50000   -0.00767
2012.00000   -0.00086
2012.50000    0.00663
2013.00000    0.01465
2013.50000    0.02306
2014.00000    0.03168
2014.50000    0.04031
2015.00000    0.04877
2015.50000    0.05683
2016.00000    0.06430
2016.50000    0.07096
2017.00000    0.07664
2017.50000    0.08116
2018.00000    0.08436
2018.50000    0.08614
2019.00000    0.08640
2019.50000    0.08509
2020.00000    0.08221
2020.50000    0.07777
2021.00000    0.07185
2021.50000    0.06455
2022.00000    0.05601
2022.50000    0.04639
2023.00000    0.03588
2023.50000    0.02470
2024.00000    0.01306
2024.50000    0.00120
2025.00000   -0.01066
2025.50000   -0.02230
2026.00000   -0.03351
2026.50000   -0.04411
2027.00000   -0.05392
2027.50000   -0.06280
2028.00000   -0.07066
2028.50000   -0.07739
2029.00000   -0.08296
2029.50000   -0.08734
2030.00000   -0.09055
2030.50000   -0.09263
2031.00000   -0.09363
2031.50000   -0.09367
2032.00000   -0.09283
2032.50000   -0.09125
2033.00000   -0.08907
2033.50000   -0.08641
2034.00000   -0.08344
2034.50000   -0.08029
2035.00000   -0.07708
2035.50000   -0.07393
2036.00000   -0.07095
2036.50000   -0.06820
2037.00000   -0.06573
2037.50000   -0.06357
2038.00000   -0.06169
2038.50000   -0.06006
2039.00000   -0.05860
2039.50000   -0.05722
2040.00000   -0.05580
2040.50000   -0.05419
2041.00000   -0.05224
2041.50000   -0.04980
2042.00000   -0.04671
2042.50000   -0.04283
2043.00000   -0.03804
2043.50000   -0.03223
2044.00000   -0.02533
2044.50000   -0.01731
2045.00000   -0.00819
2045.50000    0.00201
2046.00000    0.01317
2046.50000    0.02517
2047.00000    0.03785
2047.50000    0.05099
2048.00000    0.06439
2048.50000    0.07779
2049.00000    0.09095
2049.50000    0.10360
2050.00000    0.11550
2050.50000    0.12642
2051.00000    0.13615
2051.50000    0.14450
2052.00000    0.15133
2052.50000    0.15653
2053.00000    0.16001
2053.50000    0.16173
2054.00000    0.16171
2054.50000    0.15996
2055.00000    0.15656
2055.50000    0.15159
2056.00000    0.14518
2056.50000    0.13744
2057.00000    0.12853
2057.50000    0.11859
2058.00000    0.10780
2058.50000    0.09630
2059.00000    0.08425
2059.50000    0.07182
2060.00000    0.05915
2060.50000    0.04638
2061.00000    0.03367
2061.50000    0.02113
2062.00000    0.00892
2062.50000   -0.00286
2063.00000   -0.01408
2063.50000   -0.02462
2064.00000   -0.03437
2064.50000   -0.04323
2065.00000   -0.05110
2065.50000   -0.05788
2066.00000   -0.06350
2066.50000   -0.06787
2067.00000   -0.07095
2067.50000   -0.07267
2068.00000   -0.07302
2068.50000   -0.07198
2069.00000   -0.06956
2069.50000   -0.06577
2070.00000   -0.06068
2070.50000   -0.05434
2071.00000   -0.04684
2071.50000   -0.03829
2072.00000   -0.02882
2072.50000   -0.01857
2073.00000   -0.00770
2073.50000    0.00362
2074.00000    0.01520
2074.50000    0.02687
2075.00000    0.03842
2075.50000    0.04968
2076.00000    0.06046
2076.50000    0.07058
2077.00000    0.07989
2077.50000    0.08822
2078.00000    0.09545
2078.50000    0.10146
2079.00000    0.10617
2079.50000    0.10949
2080.00000    0.11138
2080.50000    0.11182
2081.00000    0.11080
2081.50000    0.10834
2082.00000    0.10446
2082.50000    0.09923
2083.00000    0.09271
2083.50000    0.08500
2084.00000    0.07618
2084.50000    0.06637
2085.00000    0.05570
2085.50000    0.04429
2086.00000    0.03229
2086.50000    0.01985
2087.00000    0.00714
2087.50000   -0.00568
2088.00000   -0.01843
2088.50000   -0.03093
2089.00000   -0.04298
2089.50000   -0.05440
2090.00000   -0.06500
2090.50000   -0.07458
2091.00000   -0.08298
2091.50000   -0.09001
2092.00000   -0.09553
2092.50000   -0.09940
2093.00000   -0.10152
2093.50000   -0.10180
2094.00000   -0.10021
2094.50000   -0.09674
2095.00000   -0.09142
2095.50000   -0.08434
2096.00000   -0.07559
2096.50000   -0.06534
2097.00000   -0.05377
2097.50000   -0.04111
2098.00000   -0.02760
2098.50000   -0.01352
2099.00000    0.00087
2099.50000    0.01527
2100.00000    0.02940
2100.50000    0.04297
2101.00000    0.05574
2101.50000    0.06745
2102.00000    0.07789
2102.50000    0.08689
2103.00000    0.09428
2103.50000    0.09995
2104.00000    0.10384
2104.50000    0.10588
2105.00000    0.10607
2105.50000    0.10445
2106.00000    0.10106
2106.50000    0.09599
2107.00000    0.08936
2107.50000    0.08129
2108.00000    0.07195
2108.50000    0.06152
2109.00000    0.05019
2109.50000    0.03818
2110.00000    0.02572
2110.50000    0.01304
2111.00000    0.00041
2111.50000   -0.01191
2112.00000   -0.02365
2112.50000   -0.03453
2113.00000   -0.04429
2113.50000   -0.05266
2114.00000   -0.05939
2114.50000   -0.06423
2115.00000   -0.06699
2115.50000   -0.06750
2116.00000   -0.06562
2116.50000   -0.06127
2117.00000   -0.05443
2117.50000   -0.04512
2118.00000   -0.03344
2118.50000   -0.01954
2119.00000   -0.00363
2119.50000    0.01400
2120.00000    0.03304
2120.50000    0.05313
2121.00000    0.07384
2121.50000    0.09477
2122.00000    0.11548
2122.50000    0.13553
2123.00000    0.15453
2123.50000    0.17208
2124.00000    0.18786
2124.50000    0.20158
2125.00000    0.21305
2125.50000    0.22211
2126.00000    0.22870
2126.50000    0.23283
2127.00000    0.23459
2127.50000    0.23413
2128.00000    0.23166
2128.50000    0.22743
2129.00000    0.22174
2129.50000    0.21491
2130.00000    0.20726
2130.50000    0.19910
2131.00000    0.19072
2131.50000    0.18238
2132.00000    0.17429
2132.50000    0.16662
2133.00000    0.15947
2133.50000    0.15287
2134.00000    0.14683
2134.50000    0.14128
2135.00000    0.13610
2135.50000    0.13115
2136.00000    0.12625
2136.50000    0.12123
2137.00000    0.11588
2137.50000    0.11003
2138.00000    0.10353
2138.50000    0.09624
2139.00000    0.08808
2139.50000    0.07898
2140.00000    0.06896
2140.50000    0.05804
2141.00000    0.04631
2141.50000    0.03389
2142.00000    0.02094
2142.50000    0.00762
2143.00000   -0.00588
2143.50000   -0.01935
2144.00000   -0.03260
2144.50000   -0.04545
2145.00000   -0.05773
2145.50000   -0.06930
2146.00000   -0.08003
2146.50000   -0.08983
2147.00000   -0.09865
2147.50000   -0.10644
2148.00000   -0.11321
2148.50000   -0.11896
2149.00000   -0.12372
2149.50000   -0.12755
2150.00000   -0.13050
2150.50000   -0.13262
2151.00000   -0.13398
2151.50000   -0.13464
2152.00000   -0.13465
2152.50000   -0.13405
2153.00000   -0.13287
2153.50000   -0.13113
2154.00000   -0.12886
2154.50000   -0.12605
2155.00000   -0.12270
2155.50000   -0.11881
2156.00000   -0.11437
2156.50000   -0.10937
2157.00000   -0.10380
2157.50000   -0.09767
2158.00000   -0.09099
2158.50000   -0.08378
2159.00000   -0.07608
2159.50000   -0.06792
2160.00000   -0.05936
2160.50000   -0.05048
2161.00000   -0.04136
2161.50000   -0.03210
2162.00000   -0.02279
2162.50000   -0.01355
2163.00000   -0.00448
2163.50000    0.00430
2164.00000    0.01267
2164.50000    0.02054
2165.00000    0.02781
2165.50000    0.03439
2166.00000    0.04021
2166.50000    0.04520
2167.00000    0.04935
2167.50000    0.05260
2168.00000    0.05497
2168.50000    0.05647
2169.00000    0.05712
2169.50000    0.05697
2170.00000    0.05607
2170.50000    0.05452
2171.00000    0.05237
2171.50000    0.04975
2172.00000    0.04673
2172.50000    0.04344
2173.00000    0.03998
2173.50000    0.03645
2174.00000    0.03298
2174.50000    0.02966
2175.00000    0.02659
2175.50000    0.02387
2176.00000    0.02157
2176.50000    0.01977
2177.00000    0.01852
2177.50000    0.01786
2178.00000    0.01782
2178.50000    0.01842
2179.00000    0.01966
2179.50000    0.02151
2180.00000    0.02397
2180.50000    0.02699
2181.00000    0.03053
2181.50000    0.03455
2182.00000    0.03900
2182.50000    0.04385
2183.00000    0.04905
2183.50000    0.05459
2184.00000    0.06045
2184.50000    0.06662
2185.00000    0.07312
2185.50000    0.07998
2186.00000    0.08722
2186.50000    0.09490
2187.00000    0.10306
2187.50000    0.11176
2188.00000    0.12105
2188.50000    0.13097
2189.00000    0.14156
2189.50000    0.15285
2190.00000    0.16482
2190.50000    0.17747
2191.00000    0.19075
2191.50000    0.20458
2192.00000    0.21888
2192.50000    0.23353
2193.00000    0.24838
2193.50000    0.26326
2194.00000    0.27800
2194.50000    0.29238
2195.00000    0.30622
2195.50000    0.31928
2196.00000    0.33135
2196.50000    0.34221
2197.00000    0.35166
2197.50000    0.35949
2198.00000    0.36552
2198.50000    0.36958
2199.00000    0.37155
2199.50000    0.37131
2200.00000    0.36879
2200.50000    0.36393
2201.00000    0.35674
2201.50000    0.34724
2202.00000    0.33552
2202.50000    0.32170
2203.00000    0.30592
2203.50000    0.28838
2204.00000    0.26933
2204.50000    0.24902
2205.00000    0.22774
2205.50000    0.20581
2206.00000    0.18354
2206.50000    0.16125
2207.00000    0.13928
2207.50000    0.11791
2208.00000    0.09744
2208.50000    0.07812
2209.00000    0.06016
2209.50000    0.04373
2210.00000    0.02897
2210.50000    0.01594
2211.00000    0.00468
2211.50000   -0.00483
2212.00000   -0.01265
2212.50000   -0.01888
2213.00000   -0.02364
2213.50000   -0.02710
2214.00000   -0.02941
2214.50000   -0.03077
2215.00000   -0.03135
2215.50000   -0.03133
2216.00000   -0.03087
2216.50000   -0.03012
2217.00000   -0.02920
2217.50000   -0.02822
2218.00000   -0.02725
2218.50000   -0.02634
2219.00000   -0.02552
2219.50000   -0.02479
2220.00000   -0.02414
2220.50000   -0.02353
2221.00000   -0.02291
2221.50000   -0.02225
2222.00000   -0.02146
2222.50000   -0.02050
2223.00000   -0.01930
2223.50000   -0.01782
2224.00000   -0.01600
2224.50000   -0.01381
2225.00000   -0.01124
2225.50000   -0.00827
2226.00000   -0.00492
2226.50000   -0.00121
2227.00000    0.00282
2227.50000    0.00710
2228.00000    0.01158
2228.50000    0.01615
2229.00000    0.02071
2229.50000    0.02517
2230.00000    0.02941
2230.50000    0.03330
2231.00000    0.03674
2231.50000    0.03960
2232.00000    0.04180
2232.50000    0.04323
2233.00000    0.04382
2233.50000    0.04352
2234.00000    0.04229
2234.50000    0.04011
2235.00000    0.03701
2235.50000    0.03302
2236.00000    0.02820
2236.50000    0.02263
2237.00000    0.01642
2237.50000    0.00969
2238.00000    0.00258
2238.50000   -0.00477
2239.00000   -0.01220
2239.50000   -0.01956
2240.00000   -0.02669
2240.50000   -0.03345
2241.00000   -0.03969
2241.50000   -0.04530
2242.00000   -0.05016
2242.50000   -0.05420
2243.00000   -0.05735
2243.50000   -0.05956
2244.00000   -0.06083
2244.50000   -0.06116
2245.00000   -0.06059
2245.50000   -0.05917
2246.00000   -0.05697
2246.50000   -0.05408
2247.00000   -0.05062
2247.50000   -0.04670
2248.00000   -0.04243
2248.50000   -0.03795
2249.00000   -0.03335
2249.50000   -0.02877
2250.00000   -0.02430
2250.50000   -0.02003
2251.00000   -0.01604
2251.50000   -0.01237
2252.00000   -0.00908
2252.50000   -0.00617
2253.00000   -0.00365
2253.50000   -0.00151
2254.00000    0.00027
2254.50000    0.00173
2255.00000    0.00293
2255.50000    0.00390
2256.00000    0.00471
2256.50000    0.00541
2257.00000    0.00605
2257.50000    0.00670
2258.00000    0.00738
2258.50000    0.00816
2259.00000    0.00905
2259.50000    0.01009
2260.00000    0.01131
2260.50000    0.01270
2261.00000    0.01428
2261.50000    0.01605
2262.00000    0.01800
2262.50000    0.02010
2263.00000    0.02232
2263.50000    0.02463
2264.00000    0.02698
2264.50000    0.02931
2265.00000    0.03157
2265.50000    0.03369
2266.00000    0.03559
2266.50000    0.03720
2267.00000    0.03846
2267.50000    0.03931
2268.00000    0.03969
2268.50000    0.03956
2269.00000    0.03890
2269.50000    0.03771
2270.00000    0.03601
2270.50000    0.03383
2271.00000    0.03124
2271.50000    0.02832
2272.00000    0.02515
2272.50000    0.02184
2273.00000    0.01849
2273.50000    0.01520
2274.00000    0.01207
2274.50000    0.00918
2275.00000    0.00658
2275.50000    0.00430
2276.00000    0.00235
2276.50000    0.00071
2277.00000   -0.00068
2277.50000   -0.00188
2278.00000   -0.00300
2278.50000   -0.00413
2279.00000   -0.00539
2279.50000   -0.00689
2280.00000   -0.00873
2280.50000   -0.01098
2281.00000   -0.01371
2281.50000   -0.01693
2282.00000   -0.02064
2282.50000   -0.02480
2283.00000   -0.02934
2283.50000   -0.03415
2284.00000   -0.03912
2284.50000   -0.04410
2285.00000   -0.04893
2285.50000   -0.05346
2286.00000   -0.05753
2286.50000   -0.06101
2287.00000   -0.06378
2287.50000   -0.06573
2288.00000   -0.06679
2288.50000   -0.06691
2289.00000   -0.06607
2289.50000   -0.06428
2290.00000   -0.06157
2290.50000   -0.05796
2291.00000   -0.05353
2291.50000   -0.04834
2292.00000   -0.04245
2292.50000   -0.03595
2293.00000   -0.02891
2293.50000   -0.02140
2294.00000   -0.01348
2294.50000   -0.00523
2295.00000    0.00328
2295.50000    0.01199
2296.00000    0.02083
2296.50000    0.02971
2297.00000    0.03854
2297.50000    0.04723
2298.00000    0.05567
2298.50000    0.06374
2299.00000    0.07133
2299.50000    0.07831
2300.00000    0.08455
2300.50000    0.08992
2301.00000    0.09432
2301.50000    0.09763
2302.00000    0.09978
2302.50000    0.10070
2303.00000    0.10034
2303.50000    0.09869
2304.00000    0.09577
2304.50000    0.09162
2305.00000    0.08629
2305.50000    0.07989
2306.00000    0.07252
2306.50000    0.06432
2307.00000    0.05544
2307.50000    0.04602
2308.00000    0.03624
2308.50000    0.02626
2309.00000    0.01624
2309.50000    0.00635
2310.00000   -0.00327
2310.50000   -0.01246
2311.00000   -0.02110
2311.50000   -0.02908
2312.00000   -0.03629
2312.50000   -0.04265
2313.00000   -0.04809
2313.50000   -0.05258
2314.00000   -0.05609
2314.50000   -0.05860
2315.00000   -0.06015
2315.50000   -0.06078
2316.00000   -0.06053
2316.50000   -0.05949
2317.00000   -0.05776
2317.50000   -0.05546
2318.00000   -0.05270
2318.50000   -0.04964
2319.00000   -0.04640
2319.50000   -0.04315
2320.00000   -0.04001
2320.50000   -0.03713
2321.00000   -0.03462
2321.50000   -0.03260
2322.00000   -0.03115
2322.50000   -0.03033
2323.00000   -0.03018
2323.50000   -0.03070
2324.00000   -0.03188
2324.50000   -0.03365
2325.00000   -0.03597
2325.50000   -0.03872
2326.00000   -0.04179
2326.50000   -0.04506
2327.00000   -0.04839
2327.50000   -0.05165
2328.00000   -0.05468
2328.50000   -0.05738
2329.00000   -0.05961
2329.50000   -0.06128
2330.00000   -0.06229
2330.50000   -0.06260
2331.00000   -0.06216
2331.50000   -0.06096
2332.00000   -0.05900
2332.50000   -0.05630
2333.00000   -0.05292
2333.50000   -0.04892
2334.00000   -0.04436
2334.50000   -0.03933
2335.00000   -0.03392
2335.50000   -0.02823
2336.00000   -0.02233
2336.50000   -0.01633
2337.00000   -0.01030
2337.50000   -0.00434
2338.00000    0.00150
2338.50000    0.00713
2339.00000    0.01251
2339.50000    0.01758
2340.00000    0.02229
2340.50000    0.02661
2341.00000    0.03051
2341.50000    0.03397
2342.00000    0.03697
2342.50000    0.03951
2343.00000    0.04159
2343.50000    0.04323
2344.00000    0.04445
2344.50000    0.04530
2345.00000    0.04582
2345.50000    0.04609
2346.00000    0.04618
2346.50000    0.04618
2347.00000    0.04620
2347.50000    0.04635
2348.00000    0.04674
2348.50000    0.04750
2349.00000    0.04876
2349.50000    0.05062
2350.00000    0.05319
2350.50000    0.05658
2351.00000    0.06086
2351.50000    0.06609
2352.00000    0.07230
2352.50000    0.07950
2353.00000    0.08766
2353.50000    0.09673
2354.00000    0.10664
2354.50000    0.11725
2355.00000    0.12844
2355.50000    0.14003
2356.00000    0.15185
2356.50000    0.16370
2357.00000    0.17535
2357.50000    0.18660
2358.00000    0.19724
2358.50000    0.20706
2359.00000    0.21587
2359.50000    0.22351
2360.00000    0.22984
2360.50000    0.23473
2361.00000    0.23812
2361.50000    0.23995
2362.00000    0.24021
2362.50000    0.23894
2363.00000    0.23620
2363.50000    0.23206
2364.00000    0.22665
2364.50000    0.22010
2365.00000    0.21257
2365.50000    0.20420
2366.00000    0.19517
2366.50000    0.18564
2367.00000    0.17575
2367.50000    0.16565
2368.00000    0.15546
2368.50000    0.14527
2369.00000    0.13517
2369.50000    0.12521
2370.00000    0.11544
2370.50000    0.10585
2371.00000    0.09644
2371.50000    0.08720
2372.00000    0.07807
2372.50000    0.06901
2373.00000    0.05996
2373.50000    0.05087
2374.00000    0.04166
2374.50000    0.03228
2375.00000    0.02269
2375.50000    0.01284
2376.00000    0.00270
2376.50000   -0.00772
2377.00000   -0.01842
2377.50000   -0.02936
2378.00000   -0.04048
2378.50000   -0.05169
2379.00000   -0.06289
2379.50000   -0.07392
2380.00000   -0.08464
2380.50000   -0.09486
2381.00000   -0.10439
2381.50000   -0.11302
2382.00000   -0.12055
2382.50000   -0.12678
2383.00000   -0.13153
2383.50000   -0.13463
2384.00000   -0.13597
2384.50000   -0.13544
2385.00000   -0.13302
2385.50000   -0.12871
2386.00000   -0.12256
2386.50000   -0.11470
2387.00000   -0.10529
2387.50000   -0.09452
2388.00000   -0.08265
2388.50000   -0.06993
2389.00000   -0.05665
2389.50000   -0.04310
2390.00000   -0.02955
2390.50000   -0.01627
2391.00000   -0.00348
2391.50000    0.00862
2392.00000    0.01988
2392.50000    0.03020
2393.00000    0.03951
2393.50000    0.04779
2394.00000    0.05508
2394.50000    0.06142
2395.00000    0.06689
2395.50000    0.07159
2396.00000    0.07563
2396.50000    0.07911
2397.00000    0.08214
2397.50000    0.08478
2398.00000    0.08712
2398.50000    0.08921
2399.00000    0.09106
2399.50000    0.09269
2400.00000    0.09408
2400.50000    0.09520
2401.00000    0.09602
2401.50000    0.09648
2402.00000    0.09652
2402.50000    0.09608
2403.00000    0.09511
2403.50000    0.09355
2404.00000    0.09134
2404.50000    0.08845
2405.00000    0.08483
2405.50000    0.08046
2406.00000    0.07532
2406.50000    0.06941
2407.00000    0.06275
2407.50000    0.05537
2408.00000    0.04731
2408.50000    0.03865
2409.00000    0.02947
2409.50000    0.01990
2410.00000    0.01005
2410.50000    0.00009
2411.00000   -0.00981
2411.50000   -0.01948
2412.00000   -0.02873
2412.50000   -0.03738
2413.00000   -0.04526
2413.50000   -0.05219
2414.00000   -0.05804
2414.50000   -0.06271
2415.00000   -0.06613
2415.50000   -0.06824
2416.00000   -0.06907
2416.50000   -0.06866
2417.00000   -0.06709
2417.50000   -0.06447
2418.00000   -0.06097
2418.50000   -0.05673
2419.00000   -0.05195
2419.50000   -0.04680
2420.00000   -0.04148
2420.50000   -0.03616
2421.00000   -0.03100
2421.50000   -0.02614
2422.00000   -0.02168
2422.50000   -0.01773
2423.00000   -0.01435
2423.50000   -0.01158
2424.00000   -0.00944
2424.50000   -0.00794
2425.00000   -0.00708
2425.50000   -0.00682
2426.00000   -0.00714
2426.50000   -0.00801
2427.00000   -0.00939
2427.50000   -0.01124
2428.00000   -0.01353
2428.50000   -0.01620
2429.00000   -0.01921
2429.50000   -0.02250
2430.00000   -0.02602
2430.50000   -0.02971
2431.00000   -0.03348
2431.50000   -0.03725
2432.00000   -0.04094
2432.50000   -0.04444
2433.00000   -0.04765
2433.50000   -0.05046
2434.00000   -0.05275
2434.50000   -0.05441
2435.00000   -0.05531
2435.50000   -0.05535
2436.00000   -0.05440
2436.50000   -0.05236
2437.00000   -0.04912
2437.50000   -0.04459
2438.00000   -0.03866
2438.50000   -0.03126
2439.00000   -0.02233
2439.50000   -0.01179
2440.00000    0.00037
2440.50000    0.01418
2441.00000    0.02964
2441.50000    0.04671
2442.00000    0.06534
2442.50000    0.08545
2443.00000    0.10692
2443.50000    0.12960
2444.00000    0.15332
2444.50000    0.17789
2445.00000    0.20310
2445.50000    0.22871
2446.00000    0.25449
2446.50000    0.28019
2447.00000    0.30557
2447.50000    0.33042
2448.00000    0.35452
2448.50000    0.37769
2449.00000    0.39975
2449.50000    0.42057
2450.00000    0.44005
2450.50000    0.45810
2451.00000    0.47467
2451.50000    0.48971
2452.00000    0.50321
2452.50000    0.51517
2453.00000    0.52559
2453.50000    0.53447
2454.00000    0.54184
2454.50000    0.54769
2455.00000    0.55205
2455.50000    0.55491
2456.00000    0.55628
2456.50000    0.55617
2457.00000    0.55458
2457.50000    0.55153
2458.00000    0.54702
2458.50000    0.54108
2459.00000    0.53375
2459.50000    0.52508
2460.00000    0.51511
2460.50000    0.50391
2461.00000    0.49156
2461.50000    0.47814
2462.00000    0.46373
2462.50000    0.44842
2463.00000    0.43229
2463.50000    0.41544
2464.00000    0.39793
2464.50000    0.37986
2465.00000    0.36130
2465.50000    0.34234
2466.00000    0.32304
2466.50000    0.30349
2467.00000    0.28379
2467.50000    0.26404
2468.00000    0.24434
2468.50000    0.22484
2469.00000    0.20566
2469.50000    0.18696
2470.00000    0.16890
2470.50000    0.15167
2471.00000    0.13542
2471.50000    0.12033
2472.00000    0.10656
2472.50000    0.09425
2473.00000    0.08351
2473.50000    0.07442
2474.00000    0.06703
2474.50000    0.06134
2475.00000    0.05731
2475.50000    0.05486
2476.00000    0.05386
2476.50000    0.05413
2477.00000    0.05548
2477.50000    0.05767
2478.00000    0.06046
2478.50000    0.06359
2479.00000    0.06680
2479.50000    0.06984
2480.00000    0.07247
2480.50000    0.07448
2481.00000    0.07570
2481.50000    0.07598
2482.00000    0.07521
2482.50000    0.07333
2483.00000    0.07030
2483.50000    0.06611
2484.00000    0.06080
2484.50000    0.05441
2485.00000    0.04703
2485.50000    0.03873
2486.00000    0.02962
2486.50000    0.01979
2487.00000    0.00936
2487.50000   -0.00158
2488.00000   -0.01291
2488.50000   -0.02453
2489.00000   -0.03633
2489.50000   -0.04819
2490.00000   -0.06000
2490.50000   -0.07163
2491.00000   -0.08295
2491.50000   -0.09381
2492.00000   -0.10406
2492.50000   -0.11354
2493.00000   -0.12208
2493.50000   -0.12950
2494.00000   -0.13565
2494.50000   -0.14036
2495.00000   -0.14348
2495.50000   -0.14491
2496.00000   -0.14453
2496.50000   -0.14229
2497.00000   -0.13816
2497.50000   -0.13218
2498.00000   -0.12439
2498.50000   -0.11492
2499.00000   -0.10392
2499.50000   -0.09157
2500.00000   -0.07811
2500.50000   -0.06380
2501.00000   -0.04890
2501.50000   -0.03370
2502.00000   -0.01849
2502.50000   -0.00355
2503.00000    0.01087
2503.50000    0.02452
2504.00000    0.03721
2504.50000    0.04877
2505.00000    0.05908
2505.50000    0.06806
2506.00000    0.07566
2506.50000    0.08191
2507.00000    0.08684
2507.50000    0.09052
2508.00000    0.09305
2508.50000    0.09455
2509.00000    0.09515
2509.50000    0.09497
2510.00000    0.09416
2510.50000    0.09281
2511.00000    0.09105
2511.50000    0.08894
2512.00000    0.08656
2512.50000    0.08395
2513.00000    0.08114
2513.50000    0.07814
2514.00000    0.07494
2514.50000    0.07153
2515.00000    0.06791
2515.50000    0.06405
2516.00000    0.05996
2516.50000    0.05565
2517.00000    0.05112
2517.50000    0.04640
2518.00000    0.04155
2518.50000    0.03662
2519.00000    0.03166
2519.50000    0.02676
2520.00000    0.02196
2520.50000    0.01735
2521.00000    0.01296
2521.50000    0.00883
2522.00000    0.00498
2522.50000    0.00141
2523.00000   -0.00192
2523.50000   -0.00505
2524.00000   -0.00804
2524.50000   -0.01099
2525.00000   -0.01399
2525.50000   -0.01714
2526.00000   -0.02053
2526.50000   -0.02425
2527.00000   -0.02839
2527.50000   -0.03299
2528.00000   -0.03807
2528.50000   -0.04364
2529.00000   -0.04964
2529.50000   -0.05602
2530.00000   -0.06266
2530.50000   -0.06944
2531.00000   -0.07620
2531.50000   -0.08275
2532.00000   -0.08892
2532.50000   -0.09450
2533.00000   -0.09930
2533.50000   -0.10315
2534.00000   -0.10589
2534.50000   -0.10737
2535.00000   -0.10749
2535.50000   -0.10617
2536.00000   -0.10340
2536.50000   -0.09917
2537.00000   -0.09353
2537.50000   -0.08658
2538.00000   -0.07844
2538.50000   -0.06927
2539.00000   -0.05927
2539.50000   -0.04863
2540.00000   -0.03759
2540.50000   -0.02638
2541.00000   -0.01524
2541.50000   -0.00440
2542.00000    0.00594
2542.50000    0.01557
2543.00000    0.02434
2543.50000    0.03210
2544.00000    0.03876
2544.50000    0.04426
2545.00000    0.04856
2545.50000    0.05167
2546.00000    0.05364
2546.50000    0.05454
2547.00000    0.05447
2547.50000    0.05354
2548.00000    0.05188
2548.50000    0.04963
2549.00000    0.04692
2549.50000    0.04389
2550.00000    0.04066
2550.50000    0.03732
2551.00000    0.03396
2551.50000    0.03065
2552.00000    0.02742
2552.50000    0.02429
2553.00000    0.02125
2553.50000    0.01830
2554.00000    0.01538
2554.50000    0.01246
2555.00000    0.00948
2555.50000    0.00640
2556.00000    0.00318
2556.50000   -0.00023
2557.00000   -0.00383
2557.50000   -0.00764
2558.00000   -0.01163
2558.50000   -0.01578
2559.00000   -0.02002
2559.50000   -0.02429
2560.00000   -0.02849
2560.50000   -0.03253
2561.00000   -0.03631
2561.50000   -0.03972
2562.00000   -0.04265
2562.50000   -0.04503
2563.00000   -0.04677
2563.50000   -0.04781
2564.00000   -0.04811
2564.50000   -0.04767
2565.00000   -0.04649
2565.50000   -0.04460
2566.00000   -0.04205
2566.50000   -0.03892
2567.00000   -0.03528
2567.50000   -0.03122
2568.00000   -0.02683
2568.50000   -0.02220
2569.00000   -0.01742
2569.50000   -0.01254
2570.00000   -0.00764
2570.50000   -0.00275
2571.00000    0.00208
2571.50000    0.00683
2572.00000    0.01150
2572.50000    0.01605
2573.00000    0.02049
2573.50000    0.02480
2574.00000    0.02896
2574.50000    0.03293
2575.00000    0.03669
2575.50000    0.04017
2576.00000    0.04331
2576.50000    0.04605
2577.00000    0.04831
2577.50000    0.05003
2578.00000    0.05112
2578.50000    0.05155
2579.00000    0.05127
2579.50000    0.05027
2580.00000    0.04855
2580.50000    0.04614
2581.00000    0.04311
2581.50000    0.03955
2582.00000    0.03555
2582.50000    0.03126
2583.00000    0.02680
2583.50000    0.02234
2584.00000    0.01802
2584.50000    0.01399
2585.00000    0.01039
2585.50000    0.00735
2586.00000    0.00496
2586.50000    0.00333
2587.00000    0.00249
2587.50000    0.00250
2588.00000    0.00334
2588.50000    0.00502
2589.00000    0.00748
2589.50000    0.01065
2590.00000    0.01445
2590.50000    0.01878
2591.00000    0.02349
2591.50000    0.02847
2592.00000    0.03356
2592.50000    0.03860
2593.00000    0.04343
2593.50000    0.04789
2594.00000    0.05184
2594.50000    0.05513
2595.00000    0.05764
2595.50000    0.05927
2596.00000    0.05994
2596.50000    0.05961
2597.00000    0.05826
2597.50000    0.05592
2598.00000    0.05266
2598.50000    0.04855
2599.00000    0.04372
2599.50000    0.03833
2600.00000    0.03252
2600.50000    0.02648
2601.00000    0.02036
2601.50000    0.01433
2602.00000    0.00854
2602.50000    0.00310
2603.00000   -0.00191
2603.50000   -0.00643
2604.00000   -0.01045
2604.50000   -0.01399
2605.00000   -0.01711
2605.50000   -0.01988
2606.00000   -0.02242
2606.50000   -0.02483
2607.00000   -0.02723
2607.50000   -0.02973
2608.00000   -0.03245
2608.50000   -0.03546
2609.00000   -0.03882
2609.50000   -0.04257
2610.00000   -0.04671
2610.50000   -0.05121
2611.00000   -0.05604
2611.50000   -0.06114
2612.00000   -0.06640
2612.50000   -0.07176
2613.00000   -0.07710
2613.50000   -0.08234
2614.00000   -0.08736
2614.50000   -0.09210
2615.00000   -0.09644
2615.50000   -0.10032
2616.00000   -0.10366
2616.50000   -0.10638
2617.00000   -0.10839
2617.50000   -0.10963
2618.00000   -0.11000
2618.50000   -0.10940
2619.00000   -0.10774
2619.50000   -0.10492
2620.00000   -0.10083
2620.50000   -0.09538
2621.00000   -0.08849
2621.50000   -0.08010
2622.00000   -0.07017
2622.50000   -0.05871
2623.00000   -0.04577
2623.50000   -0.03145
2624.00000   -0.01592
2624.50000    0.00063
2625.00000    0.01792
2625.50000    0.03565
2626.00000    0.05347
2626.50000    0.07100
2627.00000    0.08785
2627.50000    0.10363
2628.00000    0.11795
2628.50000    0.13048
2629.00000    0.14090
2629.50000    0.14899
2630.00000    0.15456
2630.50000    0.15752
2631.00000    0.15787
2631.50000    0.15566
2632.00000    0.15105
2632.50000    0.14424
2633.00000    0.13553
2633.50000    0.12525
2634.00000    0.11375
2634.50000    0.10143
2635.00000    0.08870
2635.50000    0.07594
2636.00000    0.06353
2636.50000    0.05184
2637.00000    0.04119
2637.50000    0.03187
2638.00000    0.02413
2638.50000    0.01819
2639.00000    0.01424
2639.50000    0.01244
2640.00000    0.01289
2640.50000    0.01573
2641.00000    0.02102
2641.50000    0.02886
2642.00000    0.03930
2642.50000    0.05241
2643.00000    0.06825
2643.50000    0.08685
2644.00000    0.10828
2644.50000    0.13255
2645.00000    0.15972
2645.50000    0.18982
2646.00000    0.22286
2646.50000    0.25889
2647.00000    0.29792
2647.50000    0.34000
2648.00000    0.38516
2648.50000    0.43347
2649.00000    0.48498
2649.50000    0.53978
2650.00000    0.59799
2650.50000    0.65972
2651.00000    0.72510
2651.50000    0.79431
2652.00000    0.86749
2652.50000    0.94483
2653.00000    1.02650
2653.50000    1.11266
2654.00000    1.20349
2654.50000    1.29913
2655.00000    1.39970
2655.50000    1.50533
2656.00000    1.61608
2656.50000    1.73205
2657.00000    1.85326
2657.50000    1.97976
2658.00000    2.11157
2658.50000    2.24870
2659.00000    2.39114
2659.50000    2.53889
2660.00000    2.69194
2660.50000    2.85028
2661.00000    3.01388
2661.50000    3.18270
2662.00000    3.35668
2662.50000    3.53576
2663.00000    3.71982
2663.50000    3.90874
2664.00000    4.10232
2664.50000    4.30037
2665.00000    4.50261
2665.50000    4.70874
2666.00000    4.91841
2666.50000    5.13123
2667.00000    5.34677
2667.50000    5.56457
2668.00000    5.78414
2668.50000    6.00497
2669.00000    6.22653
2669.50000    6.44827
2670.00000    6.66965
2670.50000    6.89007
2671.00000    7.10895
2671.50000    7.32567
2672.00000    7.53960
2672.50000    7.75006
2673.00000    7.95635
2673.50000    8.15771
2674.00000    8.35335
2674.50000    8.54245
2675.00000    8.72411
2675.50000    8.89743
2676.00000    9.06146
2676.50000    9.21525
2677.00000    9.35784
2677.50000    9.48829
2678.00000    9.60568
2678.50000    9.70916
2679.00000    9.79793
2679.50000    9.87128
2680.00000    9.92861
2680.50000    9.96940
2681.00000    9.99329
2681.50000   10.00000
2682.00000    9.98941
2682.50000    9.96151
2683.00000    9.91642
2683.50000    9.85438
2684.00000    9.77572
2684.50000    9.68091
2685.00000    9.57047
2685.50000    9.44505
2686.00000    9.30534
2686.50000    9.15212
2687.00000    8.98622
2687.50000    8.80855
2688.00000    8.62003
2688.50000    8.42166
2689.00000    8.21447
2689.50000    7.99951
2690.00000    7.77787
2690.50000    7.55065
2691.00000    7.31898
2691.50000    7.08395
2692.00000    6.84669
2692.50000    6.60826
2693.00000    6.36973
2693.50000    6.13209
2694.00000    5.89630
2694.50000    5.66323
2695.00000    5.43369
2695.50000    5.20840
2696.00000    4.98798
2696.50000    4.77298
2697.00000    4.56382
2697.50000    4.36085
2698.00000    4.16432
2698.50000    3.97439
2699.00000    3.79116
2699.50000    3.61463
2700.00000    3.44476
2700.50000    3.28146
2701.00000    3.12459
2701.50000    2.97399
2702.00000    2.82948
2702.50000    2.69087
2703.00000    2.55795
2703.50000    2.43055
2704.00000    2.30847
2704.50000    2.19154
2705.00000    2.07962
2705.50000    1.97256
2706.00000    1.87023
2706.50000    1.77253
2707.00000    1.67936
2707.50000    1.59064
2708.00000    1.50630
2708.50000    1.42626
2709.00000    1.35049
2709.50000    1.27891
2710.00000    1.21149
2710.50000    1.14817
2711.00000    1.08890
2711.50000    1.03361
2712.00000    0.98223
2712.50000    0.93469
2713.00000    0.89088
2713.50000    0.85070
2714.00000    0.81401
2714.50000    0.78065
2715.00000    0.75045
2715.50000    0.72321
2716.00000    0.69872
2716.50000    0.67673
2717.00000    0.65700
2717.50000    0.63925
2718.00000    0.62322
2718.50000    0.60864
2719.00000    0.59525
2719.50000    0.58281
2720.00000    0.57109
2720.50000    0.55989
2721.00000    0.54905
2721.50000    0.53844
2722.00000    0.52796
2722.50000    0.51754
2723.00000    0.50718
2723.50000    0.49686
2724.00000    0.48662
2724.50000    0.47650
2725.00000    0.46658
2725.50000    0.45690
2726.00000    0.44753
2726.50000    0.43852
2727.00000    0.42990
2727.50000    0.42170
2728.00000    0.41390
2728.50000    0.40648
2729.00000    0.39938
2729.50000    0.39254
2730.00000    0.38587
2730.50000    0.37925
2731.00000    0.37258
2731.50000    0.36574
2732.00000    0.35862
2732.50000    0.35110
2733.00000    0.34309
2733.50000    0.33449
2734.00000    0.32524
2734.50000    0.31526
2735.00000    0.30453
2735.50000    0.29303
2736.00000    0.28075
2736.50000    0.26771
2737.00000    0.25395
2737.50000    0.23953
2738.00000    0.22452
2738.50000    0.20902
2739.00000    0.19314
2739.50000    0.17702
2740.00000    0.16079
2740.50000    0.14464
2741.00000    0.12873
2741.50000    0.11327
2742.00000    0.09845
2742.50000    0.08447
2743.00000    0.07156
2743.50000    0.05990
2744.00000    0.04971
2744.50000    0.04115
2745.00000    0.03439
2745.50000    0.02957
2746.00000    0.02682
2746.50000    0.02621
2747.00000    0.02780
2747.50000    0.03160
2748.00000    0.03759
2748.50000    0.04572
2749.00000    0.05588
2749.50000    0.06794
2750.00000    0.08172
2750.50000    0.09699
2751.00000    0.11351
2751.50000    0.13099
2752.00000    0.14910
2752.50000    0.16750
2753.00000    0.18579
2753.50000    0.20360
2754.00000    0.22050
2754.50000    0.23610
2755.00000    0.24999
2755.50000    0.26177
2756.00000    0.27109
2756.50000    0.27762
2757.00000    0.28108
2757.50000    0.28126
2758.00000    0.27800
2758.50000    0.27123
2759.00000    0.26097
2759.50000    0.24729
2760.00000    0.23037
2760.50000    0.21046
2761.00000    0.18789
2761.50000    0.16305
2762.00000    0.13639
2762.50000    0.10839
2763.00000    0.07956
2763.50000    0.05043
2764.00000    0.02151
2764.50000   -0.00668
2765.00000   -0.03369
2765.50000   -0.05908
2766.00000   -0.08249
2766.50000   -0.10358
2767.00000   -0.12210
2767.50000   -0.13787
2768.00000   -0.15075
2768.50000   -0.16066
2769.00000   -0.16761
2769.50000   -0.17162
2770.00000   -0.17276
2770.50000   -0.17116
2771.00000   -0.16695
2771.50000   -0.16031
2772.00000   -0.15141
2772.50000   -0.14044
2773.00000   -0.12760
2773.50000   -0.11311
2774.00000   -0.09716
2774.50000   -0.07996
2775.00000   -0.06172
2775.50000   -0.04265
2776.00000   -0.02295
2776.50000   -0.00283
2777.00000    0.01749
2777.50000    0.03781
2778.00000    0.05791
2778.50000    0.07760
2779.00000    0.09666
2779.50000    0.11490
2780.00000    0.13213
2780.50000    0.14817
2781.00000    0.16285
2781.50000    0.17605
2782.00000    0.18763
2782.50000    0.19750
2783.00000    0.20559
2783.50000    0.21187
2784.00000    0.21632
2784.50000    0.21897
2785.00000    0.21988
2785.50000    0.21912
2786.00000    0.21681
2786.50000    0.21307
2787.00000    0.20808
2787.50000    0.20198
2788.00000    0.19497
2788.50000    0.18723
2789.00000    0.17896
2789.50000    0.17033
2790.00000    0.16154
2790.50000    0.15275
2791.00000    0.14409
2791.50000    0.13570
2792.00000    0.12767
2792.50000    0.12008
2793.00000    0.11296
2793.50000    0.10632
2794.00000    0.10015
2794.50000    0.09441
2795.00000    0.08904
2795.50000    0.08394
2796.00000    0.07902
2796.50000    0.07420
2797.00000    0.06936
2797.50000    0.06444
2798.00000    0.05935
2798.50000    0.05405
2799.00000    0.04852
2799.50000    0.04276
2800.00000    0.03680
2800.50000    0.03071
2801.00000    0.02458
2801.50000    0.01852
2802.00000    0.01265
2802.50000    0.00709
2803.00000    0.00199
2803.50000   -0.00255
2804.00000   -0.00642
2804.50000   -0.00955
2805.00000   -0.01189
2805.50000   -0.01342
2806.00000   -0.01418
2806.50000   -0.01422
2807.00000   -0.01363
2807.50000   -0.01254
2808.00000   -0.01109
2808.50000   -0.00943
2809.00000   -0.00775
2809.50000   -0.00619
2810.00000   -0.00492
2810.50000   -0.00409
2811.00000   -0.00382
2811.50000   -0.00420
2812.00000   -0.00530
2812.50000   -0.00718
2813.00000   -0.00983
2813.50000   -0.01325
2814.00000   -0.01740
2814.50000   -0.02220
2815.00000   -0.02759
2815.50000   -0.03345
2816.00000   -0.03969
2816.50000   -0.04618
2817.00000   -0.05280
2817.50000   -0.05943
2818.00000   -0.06595
2818.50000   -0.07223
2819.00000   -0.07817
2819.50000   -0.08367
2820.00000   -0.08862
2820.50000   -0.09294
2821.00000   -0.09657
2821.50000   -0.09943
2822.00000   -0.10150
2822.50000   -0.10273
2823.00000   -0.10310
2823.50000   -0.10262
2824.00000   -0.10129
2824.50000   -0.09913
2825.00000   -0.09616
2825.50000   -0.09240
2826.00000   -0.08791
2826.50000   -0.08271
2827.00000   -0.07684
2827.50000   -0.07034
2828.00000   -0.06323
2828.50000   -0.05555
2829.00000   -0.04734
2829.50000   -0.03861
2830.00000   -0.02940
2830.50000   -0.01976
2831.00000   -0.00974
2831.50000    0.00061
2832.00000    0.01122
2832.50000    0.02198
2833.00000    0.03280
2833.50000    0.04354
2834.00000    0.05407
2834.50000    0.06424
2835.00000    0.07387
2835.50000    0.08282
2836.00000    0.09090
2836.50000    0.09798
2837.00000    0.10390
2837.50000    0.10854
2838.00000    0.11183
2838.50000    0.11369
2839.00000    0.11411
2839.50000    0.11310
2840.00000    0.11074
2840.50000    0.10712
2841.00000    0.10239
2841.50000    0.09672
2842.00000    0.09034
2842.50000    0.08347
2843.00000    0.07637
2843.50000    0.06930
2844.00000    0.06251
2844.50000    0.05626
2845.00000    0.05078
2845.50000    0.04625
2846.00000    0.04284
2846.50000    0.04066
2847.00000    0.03977
2847.50000    0.04019
2848.00000    0.04187
2848.50000    0.04471
2849.00000    0.04856
2849.50000    0.05323
2850.00000    0.05848
2850.50000    0.06404
2851.00000    0.06963
2851.50000    0.07497
2852.00000    0.07977
2852.50000    0.08376
2853.00000    0.08670
2853.50000    0.08839
2854.00000    0.08867
2854.50000    0.08743
2855.00000    0.08464
2855.50000    0.08030
2856.00000    0.07449
2856.50000    0.06732
2857.00000    0.05896
2857.50000    0.04962
2858.00000    0.03954
2858.50000    0.02896
2859.00000    0.01815
2859.50000    0.00735
2860.00000   -0.00319
2860.50000   -0.01328
2861.00000   -0.02274
2861.50000   -0.03144
2862.00000   -0.03929
2862.50000   -0.04626
2863.00000   -0.05234
2863.50000   -0.05758
2864.00000   -0.06204
2864.50000   -0.06585
2865.00000   -0.06911
2865.50000   -0.07195
2866.00000   -0.07450
2866.50000   -0.07687
2867.00000   -0.07917
2867.50000   -0.08146
2868.00000   -0.08380
2868.50000   -0.08618
2869.00000   -0.08861
2869.50000   -0.09102
2870.00000   -0.09334
2870.50000   -0.09548
2871.00000   -0.09733
2871.50000   -0.09877
2872.00000   -0.09968
2872.50000   -0.09994
2873.00000   -0.09947
2873.50000   -0.09818
2874.00000   -0.09602
2874.50000   -0.09296
2875.00000   -0.08901
2875.50000   -0.08418
2876.00000   -0.07852
2876.50000   -0.07213
2877.00000   -0.06508
2877.50000   -0.05748
2878.00000   -0.04945
2878.50000   -0.04110
2879.00000   -0.03255
2879.50000   -0.02391
2880.00000   -0.01529
2880.50000   -0.00679
2881.00000    0.00152
2881.50000    0.00956
2882.00000    0.01724
2882.50000    0.02452
2883.00000    0.03134
2883.50000    0.03763
2884.00000    0.04336
2884.50000    0.04846
2885.00000    0.05290
2885.50000    0.05662
2886.00000    0.05958
2886.50000    0.06175
2887.00000    0.06310
2887.50000    0.06362
2888.00000    0.06330
2888.50000    0.06216
2889.00000    0.06024
2889.50000    0.05756
2890.00000    0.05422
2890.50000    0.05027
2891.00000    0.04581
2891.50000    0.04095
2892.00000    0.03578
2892.50000    0.03040
2893.00000    0.02491
2893.50000    0.01940
2894.00000    0.01394
2894.50000    0.00859
2895.00000    0.00339
2895.50000   -0.00164
2896.00000   -0.00649
2896.50000   -0.01117
2897.00000   -0.01571
2897.50000   -0.02012
2898.00000   -0.02444
2898.50000   -0.02871
2899.00000   -0.03294
2899.50000   -0.03717
