1200.50000   -0.04752
1201.00000   -0.03995
1201.50000   -0.03242
1202.00000   -0.02496
1202.50000   -0.01761
1203.00000   -0.01041
1203.50000   -0.00340
1204.00000    0.00339
1204.50000    0.00993
1205.00000    0.01620
1205.50000    0.02216
1206.00000    0.02781
1206.50000    0.03313
1207.00000    0.03812
1207.50000    0.04276
1208.00000    0.04706
1208.50000    0.05100
1209.00000    0.05457
1209.50000    0.05775
1210.00000    0.06052
1210.50000    0.06285
1211.00000    0.06471
1211.50000    0.06606
1212.00000    0.06687
1212.50000    0.06710
1213.00000    0.06670
1213.50000    0.06567
1214.00000    0.06396
1214.50000    0.06158
1215.00000    0.05851
1215.50000    0.05479
1216.00000    0.05044
1216.50000    0.04550
1217.00000    0.04005
1217.50000    0.03416
1218.00000    0.02791
1218.50000    0.02142
1219.00000    0.01480
1219.50000    0.00814
1220.00000    0.00157
1220.50000   -0.00482
1221.00000   -0.01092
1221.50000   -0.01666
1222.00000   -0.02195
1222.50000   -0.02675
1223.00000   -0.03103
1223.50000   -0.03478
1224.00000   -0.03799
1224.50000   -0.04069
1225.00000   -0.04293
1225.50000   -0.04475
1226.00000   -0.04623
1226.50000   -0.04743
1227.00000   -0.04844
1227.50000   -0.04932
1228.00000   -0.05015
1228.50000   -0.05099
1229.00000   -0.05189
1229.50000   -0.05289
1230.00000   -0.05400
1230.50000   -0.05524
1231.00000   -0.05659
1231.50000   -0.05803
1232.00000   -0.05951
1232.50000   -0.06099
1233.00000   -0.06239
1233.50000   -0.06366
1234.00000   -0.06472
1234.50000   -0.06550
1235.00000   -0.06593
1235.50000   -0.06595
1236.00000   -0.06552
1236.50000   -0.06460
1237.00000   -0.06316
1237.50000   -0.06120
1238.00000   -0.05873
1238.50000   -0.05576
1239.00000   -0.05233
1239.50000   -0.04850
1240.00000   -0.04432
1240.50000   -0.03987
1241.00000   -0.03521
1241.50000   -0.03042
1242.00000   -0.02560
1242.50000   -0.02080
1243.00000   -0.01611
1243.50000   -0.01159
1244.00000   -0.00730
1244.50000   -0.00329
1245.00000    0.00040
1245.50000    0.00373
1246.00000    0.00669
1246.50000    0.00926
1247.00000    0.01143
1247.50000    0.01321
1248.00000    0.01460
1248.50000    0.01562
1249.00000    0.01628
1249.50000    0.01661
1250.00000    0.01663
1250.50000    0.01637
1251.00000    0.01585
1251.50000    0.01512
1252.00000    0.01420
1252.50000    0.01313
1253.00000    0.01196
1253.50000    0.01072
1254.00000    0.00947
1254.50000    0.00826
1255.00000    0.00713
1255.50000    0.00616
1256.00000    0.00539
1256.50000    0.00489
1257.00000    0.00470
1257.50000    0.00489
1258.00000    0.00549
1258.50000    0.00656
1259.00000    0.00812
1259.50000    0.01019
1260.00000    0.01278
1260.50000    0.01589
1261.00000    0.01948
1261.50000    0.02354
1262.00000    0.02800
1262.50000    0.03280
1263.00000    0.03785
1263.50000    0.04308
1264.00000    0.04837
1264.50000    0.05362
1265.00000    0.05871
1265.50000    0.06353
1266.00000    0.06797
1266.50000    0.07190
1267.00000    0.07523
1267.50000    0.07786
1268.00000    0.07971
1268.50000    0.08070
1269.00000    0.08078
1269.50000    0.07992
1270.00000    0.07808
1270.50000    0.07526
1271.00000    0.07147
1271.50000    0.06674
1272.00000    0.06112
1272.50000    0.05466
1273.00000    0.04742
1273.50000    0.03950
1274.00000    0.03098
1274.50000    0.02197
1275.00000    0.01257
1275.50000    0.00291
1276.00000   -0.00692
1276.50000   -0.01678
1277.00000   -0.02655
1277.50000   -0.03613
1278.00000   -0.04539
1278.50000   -0.05422
1279.00000   -0.06252
1279.50000   -0.07018
1280.00000   -0.07712
1280.50000   -0.08324
1281.00000   -0.08848
1281.50000   -0.09277
1282.00000   -0.09605
1282.50000   -0.09828
1283.00000   -0.09943
1283.50000   -0.09948
1284.00000   -0.09843
1284.50000   -0.09629
1285.00000   -0.09307
1285.50000   -0.08883
1286.00000   -0.08360
1286.50000   -0.07745
1287.00000   -0.07045
1287.50000   -0.06270
1288.00000   -0.05430
1288.50000   -0.04534
1289.00000   -0.03596
1289.50000   -0.02627
1290.00000   -0.01640
1290.50000   -0.00648
1291.00000    0.00334
1291.50000    0.01295
1292.00000    0.02221
1292.50000    0.03099
1293.00000    0.03918
1293.50000    0.04668
1294.00000    0.05339
1294.50000    0.05924
1295.00000    0.06417
1295.50000    0.06813
1296.00000    0.07110
1296.50000    0.07308
1297.00000    0.07407
1297.50000    0.07410
1298.00000    0.07324
1298.50000    0.07154
1299.00000    0.06909
1299.50000    0.06598
1300.00000    0.06230
1300.50000    0.05817
1301.00000    0.05370
1301.50000    0.04901
1302.00000    0.04419
1302.50000    0.03936
1303.00000    0.03460
1303.50000    0.03000
1304.00000    0.02562
1304.50000    0.02151
1305.00000    0.01770
1305.50000    0.01422
1306.00000    0.01105
1306.50000    0.00819
1307.00000    0.00561
1307.50000    0.00326
1308.00000    0.00109
1308.50000   -0.00095
1309.00000   -0.00293
1309.50000   -0.00490
1310.00000   -0.00692
1310.50000   -0.00903
1311.00000   -0.01128
1311.50000   -0.01368
1312.00000   -0.01624
1312.50000   -0.01897
1313.00000   -0.02183
1313.50000   -0.02479
1314.00000   -0.02780
1314.50000   -0.03081
1315.00000   -0.03374
1315.50000   -0.03652
1316.00000   -0.03909
1316.50000   -0.04135
1317.00000   -0.04326
1317.50000   -0.04475
1318.00000   -0.04577
1318.50000   -0.04629
1319.00000   -0.04630
1319.50000   -0.04578
1320.00000   -0.04476
1320.50000   -0.04327
1321.00000   -0.04133
1321.50000   -0.03901
1322.00000   -0.03636
1322.50000   -0.03342
1323.00000   -0.03027
1323.50000   -0.02694
1324.00000   -0.02347
1324.50000   -0.01988
1325.00000   -0.01619
1325.50000   -0.01238
1326.00000   -0.00842
1326.50000   -0.00427
1327.00000    0.00015
1327.50000    0.00491
1328.00000    0.01013
1328.50000    0.01591
1329.00000    0.02236
1329.50000    0.02962
1330.00000    0.03779
1330.50000    0.04698
1331.00000    0.05731
1331.50000    0.06884
1332.00000    0.08164
1332.50000    0.09575
1333.00000    0.11119
1333.50000    0.12794
1334.00000    0.14595
1334.50000    0.16517
1335.00000    0.18548
1335.50000    0.20676
1336.00000    0.22885
1336.50000    0.25157
1337.00000    0.27473
1337.50000    0.29809
1338.00000    0.32142
1338.50000    0.34446
1339.00000    0.36696
1339.50000    0.38866
1340.00000    0.40928
1340.50000    0.42856
1341.00000    0.44625
1341.50000    0.46209
1342.00000    0.47587
1342.50000    0.48737
1343.00000    0.49640
1343.50000    0.50283
1344.00000    0.50651
1344.50000    0.50738
1345.00000    0.50537
1345.50000    0.50048
1346.00000    0.49276
1346.50000    0.48228
1347.00000    0.46916
1347.50000    0.45356
1348.00000    0.43570
1348.50000    0.41579
1349.00000    0.39411
1349.50000    0.37092
1350.00000    0.34655
1350.50000    0.32129
1351.00000    0.29547
1351.50000    0.26940
1352.00000    0.24338
1352.50000    0.21771
1353.00000    0.19266
1353.50000    0.16846
1354.00000    0.14535
1354.50000    0.12351
1355.00000    0.10308
1355.50000    0.08421
1356.00000    0.06695
1356.50000    0.05139
1357.00000    0.03753
1357.50000    0.02538
1358.00000    0.01490
1358.50000    0.00606
1359.00000   -0.00122
1359.50000   -0.00701
1360.00000   -0.01141
1360.50000   -0.01452
1361.00000   -0.01644
1361.50000   -0.01728
1362.00000   -0.01717
1362.50000   -0.01620
1363.00000   -0.01449
1363.50000   -0.01216
1364.00000   -0.00931
1364.50000   -0.00607
1365.00000   -0.00253
1365.50000    0.00120
1366.00000    0.00500
1366.50000    0.00878
1367.00000    0.01244
1367.50000    0.01587
1368.00000    0.01899
1368.50000    0.02171
1369.00000    0.02394
1369.50000    0.02563
1370.00000    0.02671
1370.50000    0.02713
1371.00000    0.02686
1371.50000    0.02588
1372.00000    0.02420
1372.50000    0.02182
1373.00000    0.01879
1373.50000    0.01515
1374.00000    0.01099
1374.50000    0.00639
1375.00000    0.00145
1375.50000   -0.00371
1376.00000   -0.00895
1376.50000   -0.01415
1377.00000   -0.01917
1377.50000   -0.02387
1378.00000   -0.02812
1378.50000   -0.03180
1379.00000   -0.03479
1379.50000   -0.03701
1380.00000   -0.03837
1380.50000   -0.03884
1381.00000   -0.03838
1381.50000   -0.03699
1382.00000   -0.03469
1382.50000   -0.03154
1383.00000   -0.02760
1383.50000   -0.02299
1384.00000   -0.01780
1384.50000   -0.01218
1385.00000   -0.00626
1385.50000   -0.00019
1386.00000    0.00588
1386.50000    0.01180
1387.00000    0.01744
1387.50000    0.02267
1388.00000    0.02736
1388.50000    0.03143
1389.00000    0.03480
1389.50000    0.03740
1390.00000    0.03919
1390.50000    0.04017
1391.00000    0.04033
1391.50000    0.03969
1392.00000    0.03831
1392.50000    0.03622
1393.00000    0.03352
1393.50000    0.03026
1394.00000    0.02655
1394.50000    0.02248
1395.00000    0.01815
1395.50000    0.01365
1396.00000    0.00910
1396.50000    0.00459
1397.00000    0.00021
1397.50000   -0.00395
1398.00000   -0.00780
1398.50000   -0.01127
1399.00000   -0.01430
1399.50000   -0.01684
1400.00000   -0.01885
1400.50000   -0.02030
1401.00000   -0.02118
1401.50000   -0.02151
1402.00000   -0.02130
1402.50000   -0.02059
1403.00000   -0.01943
1403.50000   -0.01788
1404.00000   -0.01603
1404.50000   -0.01396
1405.00000   -0.01175
1405.50000   -0.00951
1406.00000   -0.00733
1406.50000   -0.00530
1407.00000   -0.00351
1407.50000   -0.00202
1408.00000   -0.00089
1408.50000   -0.00019
1409.00000    0.00008
1409.50000   -0.00010
1410.00000   -0.00073
1410.50000   -0.00178
1411.00000   -0.00321
1411.50000   -0.00496
1412.00000   -0.00697
1412.50000   -0.00918
1413.00000   -0.01149
1413.50000   -0.01384
1414.00000   -0.01616
1414.50000   -0.01838
1415.00000   -0.02044
1415.50000   -0.02230
1416.00000   -0.02393
1416.50000   -0.02529
1417.00000   -0.02639
1417.50000   -0.02721
1418.00000   -0.02777
1418.50000   -0.02809
1419.00000   -0.02819
1419.50000   -0.02809
1420.00000   -0.02782
1420.50000   -0.02741
1421.00000   -0.02687
1421.50000   -0.02622
1422.00000   -0.02548
1422.50000   -0.02465
1423.00000   -0.02374
1423.50000   -0.02276
1424.00000   -0.02171
1424.50000   -0.02058
1425.00000   -0.01939
1425.50000   -0.01815
1426.00000   -0.01686
1426.50000   -0.01555
1427.00000   -0.01424
1427.50000   -0.01294
1428.00000   -0.01171
1428.50000   -0.01057
1429.00000   -0.00954
1429.50000   -0.00868
1430.00000   -0.00800
1430.50000   -0.00752
1431.00000   -0.00725
1431.50000   -0.00719
1432.00000   -0.00733
1432.50000   -0.00763
1433.00000   -0.00805
1433.50000   -0.00852
1434.00000   -0.00897
1434.50000   -0.00931
1435.00000   -0.00945
1435.50000   -0.00928
1436.00000   -0.00869
1436.50000   -0.00758
1437.00000   -0.00585
1437.50000   -0.00342
1438.00000   -0.00020
1438.50000    0.00387
1439.00000    0.00883
1439.50000    0.01468
1440.00000    0.02143
1440.50000    0.02904
1441.00000    0.03744
1441.50000    0.04656
1442.00000    0.05628
1442.50000    0.06646
1443.00000    0.07696
1443.50000    0.08761
1444.00000    0.09822
1444.50000    0.10861
1445.00000    0.11857
1445.50000    0.12793
1446.00000    0.13648
1446.50000    0.14406
1447.00000    0.15051
1447.50000    0.15566
1448.00000    0.15942
1448.50000    0.16168
1449.00000    0.16238
1449.50000    0.16149
1450.00000    0.15900
1450.50000    0.15494
1451.00000    0.14939
1451.50000    0.14243
1452.00000    0.13418
1452.50000    0.12480
1453.00000    0.11444
1453.50000    0.10329
1454.00000    0.09155
1454.50000    0.07940
1455.00000    0.06705
1455.50000    0.05470
1456.00000    0.04252
1456.50000    0.03070
1457.00000    0.01938
1457.50000    0.00870
1458.00000   -0.00123
1458.50000   -0.01032
1459.00000   -0.01849
1459.50000   -0.02572
1460.00000   -0.03197
1460.50000   -0.03725
1461.00000   -0.04156
1461.50000   -0.04494
1462.00000   -0.04743
1462.50000   -0.04907
1463.00000   -0.04993
1463.50000   -0.05007
1464.00000   -0.04954
1464.50000   -0.04840
1465.00000   -0.04672
1465.50000   -0.04456
1466.00000   -0.04198
1466.50000   -0.03903
1467.00000   -0.03576
1467.50000   -0.03223
1468.00000   -0.02848
1468.50000   -0.02456
1469.00000   -0.02053
1469.50000   -0.01642
1470.00000   -0.01227
1470.50000   -0.00812
1471.00000   -0.00401
1471.50000    0.00004
1472.00000    0.00401
1472.50000    0.00788
1473.00000    0.01165
1473.50000    0.01531
1474.00000    0.01887
1474.50000    0.02234
1475.00000    0.02575
1475.50000    0.02910
1476.00000    0.03244
1476.50000    0.03577
1477.00000    0.03913
1477.50000    0.04252
1478.00000    0.04596
1478.50000    0.04945
1479.00000    0.05298
1479.50000    0.05653
1480.00000    0.06005
1480.50000    0.06352
1481.00000    0.06685
1481.50000    0.07000
1482.00000    0.07288
1482.50000    0.07541
1483.00000    0.07750
1483.50000    0.07907
1484.00000    0.08005
1484.50000    0.08035
1485.00000    0.07992
1485.50000    0.07870
1486.00000    0.07667
1486.50000    0.07380
1487.00000    0.07009
1487.50000    0.06557
1488.00000    0.06027
1488.50000    0.05424
1489.00000    0.04757
1489.50000    0.04033
1490.00000    0.03263
1490.50000    0.02458
1491.00000    0.01629
1491.50000    0.00789
1492.00000   -0.00052
1492.50000   -0.00880
1493.00000   -0.01687
1493.50000   -0.02461
1494.00000   -0.03194
1494.50000   -0.03878
1495.00000   -0.04508
1495.50000   -0.05079
1496.00000   -0.05590
1496.50000   -0.06039
1497.00000   -0.06428
1497.50000   -0.06758
1498.00000   -0.07033
1498.50000   -0.07258
1499.00000   -0.07439
1499.50000   -0.07581
1500.00000   -0.07689
1500.50000   -0.07770
1501.00000   -0.07828
1501.50000   -0.07868
1502.00000   -0.07892
1502.50000   -0.07901
1503.00000   -0.07896
1503.50000   -0.07874
1504.00000   -0.07834
1504.50000   -0.07771
1505.00000   -0.07680
1505.50000   -0.07555
1506.00000   -0.07391
1506.50000   -0.07182
1507.00000   -0.06922
1507.50000   -0.06609
1508.00000   -0.06239
1508.50000   -0.05812
1509.00000   -0.05329
1509.50000   -0.04795
1510.00000   -0.04215
1510.50000   -0.03596
1511.00000   -0.02950
1511.50000   -0.02287
1512.00000   -0.01620
1512.50000   -0.00961
1513.00000   -0.00324
1513.50000    0.00280
1514.00000    0.00841
1514.50000    0.01349
1515.00000    0.01798
1515.50000    0.02185
1516.00000    0.02508
1516.50000    0.02769
1517.00000    0.02973
1517.50000    0.03126
1518.00000    0.03236
1518.50000    0.03314
1519.00000    0.03370
1519.50000    0.03415
1520.00000    0.03457
1520.50000    0.03507
1521.00000    0.03570
1521.50000    0.03650
1522.00000    0.03749
1522.50000    0.03865
1523.00000    0.03995
1523.50000    0.04131
1524.00000    0.04265
1524.50000    0.04387
1525.00000    0.04483
1525.50000    0.04544
1526.00000    0.04557
1526.50000    0.04512
1527.00000    0.04401
1527.50000    0.04216
1528.00000    0.03955
1528.50000    0.03616
1529.00000    0.03202
1529.50000    0.02718
1530.00000    0.02172
1530.50000    0.01574
1531.00000    0.00936
1531.50000    0.00272
1532.00000   -0.00404
1532.50000   -0.01077
1533.00000   -0.01734
1533.50000   -0.02361
1534.00000   -0.02949
1534.50000   -0.03487
1535.00000   -0.03969
1535.50000   -0.04388
1536.00000   -0.04742
1536.50000   -0.05030
1537.00000   -0.05251
1537.50000   -0.05407
1538.00000   -0.05499
1538.50000   -0.05532
1539.00000   -0.05507
1539.50000   -0.05427
1540.00000   -0.05295
1540.50000   -0.05113
1541.00000   -0.04883
1541.50000   -0.04606
1542.00000   -0.04282
1542.50000   -0.03914
1543.00000   -0.03502
1543.50000   -0.03050
1544.00000   -0.02559
1544.50000   -0.02035
1545.00000   -0.01484
1545.50000   -0.00911
1546.00000   -0.00328
1546.50000    0.00258
1547.00000    0.00833
1547.50000    0.01388
1548.00000    0.01909
1548.50000    0.02384
1549.00000    0.02803
1549.50000    0.03156
1550.00000    0.03435
1550.50000    0.03634
1551.00000    0.03752
1551.50000    0.03788
1552.00000    0.03748
1552.50000    0.03637
1553.00000    0.03469
1553.50000    0.03256
1554.00000    0.03016
1554.50000    0.02768
1555.00000    0.02534
1555.50000    0.02335
1556.00000    0.02195
1556.50000    0.02135
1557.00000    0.02178
1557.50000    0.02343
1558.00000    0.02648
1558.50000    0.03110
1559.00000    0.03742
1559.50000    0.04554
1560.00000    0.05556
1560.50000    0.06752
1561.00000    0.08146
1561.50000    0.09741
1562.00000    0.11536
1562.50000    0.13532
1563.00000    0.15727
1563.50000    0.18121
1564.00000    0.20714
1564.50000    0.23506
1565.00000    0.26500
1565.50000    0.29700
1566.00000    0.33110
1566.50000    0.36738
1567.00000    0.40591
1567.50000    0.44678
1568.00000    0.49009
1568.50000    0.53594
1569.00000    0.58441
1569.50000    0.63558
1570.00000    0.68951
1570.50000    0.74624
1571.00000    0.80576
1571.50000    0.86805
1572.00000    0.93302
1572.50000    1.00055
1573.00000    1.07047
1573.50000    1.14256
1574.00000    1.21654
1574.50000    1.29210
1575.00000    1.36887
1575.50000    1.44644
1576.00000    1.52435
1576.50000    1.60214
1577.00000    1.67930
1577.50000    1.75532
1578.00000    1.82966
1578.50000    1.90180
1579.00000    1.97120
1579.50000    2.03737
1580.00000    2.09979
1580.50000    2.15799
1581.00000    2.21154
1581.50000    2.26001
1582.00000    2.30303
1582.50000    2.34025
1583.00000    2.37137
1583.50000    2.39615
1584.00000    2.41436
1584.50000    2.42586
1585.00000    2.43052
1585.50000    2.42830
1586.00000    2.41918
1586.50000    2.40323
1587.00000    2.38055
1587.50000    2.35133
1588.00000    2.31577
1588.50000    2.27419
1589.00000    2.22691
1589.50000    2.17434
1590.00000    2.11692
1590.50000    2.05514
1591.00000    1.98953
1591.50000    1.92065
1592.00000    1.84907
1592.50000    1.77539
1593.00000    1.70020
1593.50000    1.62407
1594.00000    1.54760
1594.50000    1.47131
1595.00000    1.39573
1595.50000    1.32131
1596.00000    1.24850
1596.50000    1.17766
1597.00000    1.10912
1597.50000    1.04315
1598.00000    0.97996
1598.50000    0.91972
1599.00000    0.86256
1599.50000    0.80854
1600.00000    0.75770
1600.50000    0.71004
1601.00000    0.66555
1601.50000    0.62417
1602.00000    0.58585
1602.50000    0.55050
1603.00000    0.51803
1603.50000    0.48833
1604.00000    0.46129
1604.50000    0.43680
1605.00000    0.41471
1605.50000    0.39489
1606.00000    0.37718
1606.50000    0.36144
1607.00000    0.34747
1607.50000    0.33512
1608.00000    0.32419
1608.50000    0.31450
1609.00000    0.30585
1609.50000    0.29806
1610.00000    0.29094
1610.50000    0.28433
1611.00000    0.27805
1611.50000    0.27198
1612.00000    0.26599
1612.50000    0.25998
1613.00000    0.25387
1613.50000    0.24762
1614.00000    0.24119
1614.50000    0.23457
1615.00000    0.22777
1615.50000    0.22081
1616.00000    0.21370
1616.50000    0.20649
1617.00000    0.19919
1617.50000    0.19184
1618.00000    0.18444
1618.50000    0.17702
1619.00000    0.16956
1619.50000    0.16206
1620.00000    0.15450
1620.50000    0.14683
1621.00000    0.13904
1621.50000    0.13108
1622.00000    0.12293
1622.50000    0.11456
1623.00000    0.10597
1623.50000    0.09715
1624.00000    0.08811
1624.50000    0.07891
1625.00000    0.06958
1625.50000    0.06018
1626.00000    0.05081
1626.50000    0.04153
1627.00000    0.03245
1627.50000    0.02365
1628.00000    0.01521
1628.50000    0.00721
1629.00000   -0.00029
1629.50000   -0.00724
1630.00000   -0.01362
1630.50000   -0.01942
1631.00000   -0.02465
1631.50000   -0.02935
1632.00000   -0.03355
1632.50000   -0.03731
1633.00000   -0.04071
1633.50000   -0.04380
1634.00000   -0.04665
1634.50000   -0.04931
1635.00000   -0.05184
1635.50000   -0.05424
1636.00000   -0.05654
1636.50000   -0.05872
1637.00000   -0.06074
1637.50000   -0.06256
1638.00000   -0.06409
1638.50000   -0.06526
1639.00000   -0.06597
1639.50000   -0.06612
1640.00000   -0.06560
1640.50000   -0.06432
1641.00000   -0.06219
1641.50000   -0.05913
1642.00000   -0.05509
1642.50000   -0.05004
1643.00000   -0.04397
1643.50000   -0.03688
1644.00000   -0.02884
1644.50000   -0.01990
1645.00000   -0.01015
1645.50000    0.00028
1646.00000    0.01126
1646.50000    0.02264
1647.00000    0.03426
1647.50000    0.04593
1648.00000    0.05749
1648.50000    0.06875
1649.00000    0.07953
1649.50000    0.08968
1650.00000    0.09903
1650.50000    0.10744
1651.00000    0.11478
1651.50000    0.12094
1652.00000    0.12582
1652.50000    0.12937
1653.00000    0.13153
1653.50000    0.13228
1654.00000    0.13163
1654.50000    0.12961
1655.00000    0.12625
1655.50000    0.12164
1656.00000    0.11587
1656.50000    0.10904
1657.00000    0.10128
1657.50000    0.09273
1658.00000    0.08353
1658.50000    0.07385
1659.00000    0.06383
1659.50000    0.05363
1660.00000    0.04340
1660.50000    0.03327
1661.00000    0.02337
1661.50000    0.01382
1662.00000    0.00471
1662.50000   -0.00388
1663.00000   -0.01189
1663.50000   -0.01928
1664.00000   -0.02603
1664.50000   -0.03211
1665.00000   -0.03754
1665.50000   -0.04233
1666.00000   -0.04649
1666.50000   -0.05006
1667.00000   -0.05305
1667.50000   -0.05548
1668.00000   -0.05739
1668.50000   -0.05878
1669.00000   -0.05966
1669.50000   -0.06004
1670.00000   -0.05990
1670.50000   -0.05924
1671.00000   -0.05804
1671.50000   -0.05629
1672.00000   -0.05397
1672.50000   -0.05107
1673.00000   -0.04758
1673.50000   -0.04352
1674.00000   -0.03890
1674.50000   -0.03376
1675.00000   -0.02814
1675.50000   -0.02209
1676.00000   -0.01571
1676.50000   -0.00906
1677.00000   -0.00225
1677.50000    0.00461
1678.00000    0.01143
1678.50000    0.01809
1679.00000    0.02450
1679.50000    0.03055
1680.00000    0.03616
1680.50000    0.04126
1681.00000    0.04579
1681.50000    0.04971
1682.00000    0.05300
1682.50000    0.05566
1683.00000    0.05769
1683.50000    0.05912
1684.00000    0.05998
1684.50000    0.06032
1685.00000    0.06017
1685.50000    0.05960
1686.00000    0.05864
1686.50000    0.05734
1687.00000    0.05574
1687.50000    0.05385
1688.00000    0.05171
1688.50000    0.04931
1689.00000    0.04666
1689.50000    0.04376
1690.00000    0.04059
1690.50000    0.03715
1691.00000    0.03343
1691.50000    0.02941
1692.00000    0.02509
1692.50000    0.02048
1693.00000    0.01558
1693.50000    0.01043
1694.00000    0.00506
1694.50000   -0.00050
1695.00000   -0.00617
1695.50000   -0.01189
1696.00000   -0.01759
1696.50000   -0.02318
1697.00000   -0.02858
1697.50000   -0.03370
1698.00000   -0.03845
1698.50000   -0.04276
1699.00000   -0.04654
1699.50000   -0.04972
1700.00000   -0.05226
1700.50000   -0.05410
1701.00000   -0.05522
1701.50000   -0.05560
1702.00000   -0.05523
1702.50000   -0.05412
1703.00000   -0.05231
1703.50000   -0.04982
1704.00000   -0.04671
1704.50000   -0.04305
1705.00000   -0.03889
1705.50000   -0.03433
1706.00000   -0.02943
1706.50000   -0.02428
1707.00000   -0.01898
1707.50000   -0.01359
1708.00000   -0.00821
1708.50000   -0.00290
1709.00000    0.00227
1709.50000    0.00724
1710.00000    0.01197
1710.50000    0.01643
1711.00000    0.02058
1711.50000    0.02442
1712.00000    0.02794
1712.50000    0.03113
1713.00000    0.03402
1713.50000    0.03661
1714.00000    0.03891
1714.50000    0.04093
1715.00000    0.04269
1715.50000    0.04420
1716.00000    0.04543
1716.50000    0.04640
1717.00000    0.04707
1717.50000    0.04744
1718.00000    0.04746
1718.50000    0.04711
1719.00000    0.04634
1719.50000    0.04513
1720.00000    0.04344
1720.50000    0.04124
1721.00000    0.03853
1721.50000    0.03529
1722.00000    0.03154
1722.50000    0.02731
1723.00000    0.02264
1723.50000    0.01759
1724.00000    0.01224
1724.50000    0.00668
1725.00000    0.00101
1725.50000   -0.00465
1726.00000   -0.01021
1726.50000   -0.01553
1727.00000   -0.02053
1727.50000   -0.02508
1728.00000   -0.02911
1728.50000   -0.03255
1729.00000   -0.03532
1729.50000   -0.03740
1730.00000   -0.03876
1730.50000   -0.03940
1731.00000   -0.03932
1731.50000   -0.03857
1732.00000   -0.03718
1732.50000   -0.03521
1733.00000   -0.03271
1733.50000   -0.02974
1734.00000   -0.02638
1734.50000   -0.02268
1735.00000   -0.01870
1735.50000   -0.01449
1736.00000   -0.01008
1736.50000   -0.00552
1737.00000   -0.00081
1737.50000    0.00403
1738.00000    0.00900
1738.50000    0.01411
1739.00000    0.01939
1739.50000    0.02485
1740.00000    0.03054
1740.50000    0.03647
1741.00000    0.04269
1741.50000    0.04923
1742.00000    0.05611
1742.50000    0.06335
1743.00000    0.07096
1743.50000    0.07894
1744.00000    0.08728
1744.50000    0.09594
1745.00000    0.10487
1745.50000    0.11401
1746.00000    0.12325
1746.50000    0.13249
1747.00000    0.14160
1747.50000    0.15044
1748.00000    0.15882
1748.50000    0.16659
1749.00000    0.17354
1749.50000    0.17950
1750.00000    0.18427
1750.50000    0.18767
1751.00000    0.18956
1751.50000    0.18978
1752.00000    0.18824
1752.50000    0.18486
1753.00000    0.17961
1753.50000    0.17251
1754.00000    0.16361
1754.50000    0.15304
1755.00000    0.14094
1755.50000    0.12751
1756.00000    0.11299
1756.50000    0.09765
1757.00000    0.08177
1757.50000    0.06567
1758.00000    0.04965
1758.50000    0.03402
1759.00000    0.01907
1759.50000    0.00506
1760.00000   -0.00778
1760.50000   -0.01927
1761.00000   -0.02925
1761.50000   -0.03765
1762.00000   -0.04442
1762.50000   -0.04958
1763.00000   -0.05319
1763.50000   -0.05536
1764.00000   -0.05624
1764.50000   -0.05600
1765.00000   -0.05486
1765.50000   -0.05303
1766.00000   -0.05072
1766.50000   -0.04816
1767.00000   -0.04554
1767.50000   -0.04304
1768.00000   -0.04081
1768.50000   -0.03897
1769.00000   -0.03761
1769.50000   -0.03675
1770.00000   -0.03642
1770.50000   -0.03658
1771.00000   -0.03719
1771.50000   -0.03815
1772.00000   -0.03936
1772.50000   -0.04071
1773.00000   -0.04207
1773.50000   -0.04332
1774.00000   -0.04433
1774.50000   -0.04500
1775.00000   -0.04524
1775.50000   -0.04497
1776.00000   -0.04416
1776.50000   -0.04277
1777.00000   -0.04082
1777.50000   -0.03833
1778.00000   -0.03536
1778.50000   -0.03198
1779.00000   -0.02829
1779.50000   -0.02437
1780.00000   -0.02035
1780.50000   -0.01633
1781.00000   -0.01242
1781.50000   -0.00872
1782.00000   -0.00533
1782.50000   -0.00231
1783.00000    0.00027
1783.50000    0.00238
1784.00000    0.00401
1784.50000    0.00515
1785.00000    0.00584
1785.50000    0.00612
1786.00000    0.00606
1786.50000    0.00573
1787.00000    0.00523
1787.50000    0.00465
1788.00000    0.00411
1788.50000    0.00371
1789.00000    0.00357
1789.50000    0.00380
1790.00000    0.00450
1790.50000    0.00575
1791.00000    0.00765
1791.50000    0.01026
1792.00000    0.01364
1792.50000    0.01783
1793.00000    0.02287
1793.50000    0.02874
1794.00000    0.03546
1794.50000    0.04299
1795.00000    0.05129
1795.50000    0.06032
1796.00000    0.07000
1796.50000    0.08025
1797.00000    0.09097
1797.50000    0.10205
1798.00000    0.11339
1798.50000    0.12485
1799.00000    0.13631
1799.50000    0.14763
1800.00000    0.15868
1800.50000    0.16931
1801.00000    0.17941
1801.50000    0.18884
1802.00000    0.19749
1802.50000    0.20523
1803.00000    0.21199
1803.50000    0.21765
1804.00000    0.22217
1804.50000    0.22548
1805.00000    0.22755
1805.50000    0.22836
1806.00000    0.22791
1806.50000    0.22622
1807.00000    0.22332
1807.50000    0.21925
1808.00000    0.21410
1808.50000    0.20794
1809.00000    0.20085
1809.50000    0.19295
1810.00000    0.18433
1810.50000    0.17512
1811.00000    0.16543
1811.50000    0.15537
1812.00000    0.14507
1812.50000    0.13464
1813.00000    0.12418
1813.50000    0.11380
1814.00000    0.10358
1814.50000    0.09360
1815.00000    0.08393
1815.50000    0.07463
1816.00000    0.06573
1816.50000    0.05726
1817.00000    0.04925
1817.50000    0.04168
1818.00000    0.03454
1818.50000    0.02781
1819.00000    0.02147
1819.50000    0.01546
1820.00000    0.00974
1820.50000    0.00427
1821.00000   -0.00101
1821.50000   -0.00615
1822.00000   -0.01118
1822.50000   -0.01614
1823.00000   -0.02107
1823.50000   -0.02597
1824.00000   -0.03086
1824.50000   -0.03572
1825.00000   -0.04053
1825.50000   -0.04527
1826.00000   -0.04987
1826.50000   -0.05431
1827.00000   -0.05849
1827.50000   -0.06237
1828.00000   -0.06586
1828.50000   -0.06889
1829.00000   -0.07139
1829.50000   -0.07329
1830.00000   -0.07453
1830.50000   -0.07504
1831.00000   -0.07480
1831.50000   -0.07374
1832.00000   -0.07187
1832.50000   -0.06916
1833.00000   -0.06562
1833.50000   -0.06126
1834.00000   -0.05611
1834.50000   -0.05021
1835.00000   -0.04362
1835.50000   -0.03639
1836.00000   -0.02861
1836.50000   -0.02035
1837.00000   -0.01172
1837.50000   -0.00281
1838.00000    0.00626
1838.50000    0.01536
1839.00000    0.02439
1839.50000    0.03320
1840.00000    0.04167
1840.50000    0.04968
1841.00000    0.05709
1841.50000    0.06379
1842.00000    0.06968
1842.50000    0.07465
1843.00000    0.07862
1843.50000    0.08154
1844.00000    0.08335
1844.50000    0.08403
1845.00000    0.08359
1845.50000    0.08205
1846.00000    0.07945
1846.50000    0.07585
1847.00000    0.07134
1847.50000    0.06600
1848.00000    0.05996
1848.50000    0.05332
1849.00000    0.04620
1849.50000    0.03873
1850.00000    0.03103
1850.50000    0.02322
1851.00000    0.01539
1851.50000    0.00765
1852.00000    0.00009
1852.50000   -0.00721
1853.00000   -0.01419
1853.50000   -0.02079
1854.00000   -0.02695
1854.50000   -0.03262
1855.00000   -0.03777
1855.50000   -0.04236
1856.00000   -0.04633
1856.50000   -0.04966
1857.00000   -0.05231
1857.50000   -0.05423
1858.00000   -0.05538
1858.50000   -0.05574
1859.00000   -0.05528
1859.50000   -0.05397
1860.00000   -0.05181
1860.50000   -0.04879
1861.00000   -0.04495
1861.50000   -0.04030
1862.00000   -0.03491
1862.50000   -0.02884
1863.00000   -0.02219
1863.50000   -0.01504
1864.00000   -0.00752
1864.50000    0.00026
1865.00000    0.00817
1865.50000    0.01607
1866.00000    0.02384
1866.50000    0.03137
1867.00000    0.03853
1867.50000    0.04524
1868.00000    0.05140
1868.50000    0.05696
1869.00000    0.06186
1869.50000    0.06606
1870.00000    0.06955
1870.50000    0.07233
1871.00000    0.07439
1871.50000    0.07576
1872.00000    0.07645
1872.50000    0.07649
1873.00000    0.07591
1873.50000    0.07474
1874.00000    0.07299
1874.50000    0.07070
1875.00000    0.06788
1875.50000    0.06456
1876.00000    0.06075
1876.50000    0.05649
1877.00000    0.05180
1877.50000    0.04671
1878.00000    0.04128
1878.50000    0.03554
1879.00000    0.02956
1879.50000    0.02341
1880.00000    0.01717
1880.50000    0.01092
1881.00000    0.00475
1881.50000   -0.00126
1882.00000   -0.00700
1882.50000   -0.01240
1883.00000   -0.01737
1883.50000   -0.02185
1884.00000   -0.02580
1884.50000   -0.02916
1885.00000   -0.03194
1885.50000   -0.03412
1886.00000   -0.03574
1886.50000   -0.03684
1887.00000   -0.03748
1887.50000   -0.03772
1888.00000   -0.03767
1888.50000   -0.03741
1889.00000   -0.03703
1889.50000   -0.03664
1890.00000   -0.03632
1890.50000   -0.03614
1891.00000   -0.03618
1891.50000   -0.03646
1892.00000   -0.03702
1892.50000   -0.03785
1893.00000   -0.03894
1893.50000   -0.04023
1894.00000   -0.04168
1894.50000   -0.04319
1895.00000   -0.04468
1895.50000   -0.04605
1896.00000   -0.04719
1896.50000   -0.04800
1897.00000   -0.04837
1897.50000   -0.04822
1898.00000   -0.04747
1898.50000   -0.04606
1899.00000   -0.04396
1899.50000   -0.04114
1900.00000   -0.03760
1900.50000   -0.03339
1901.00000   -0.02854
1901.50000   -0.02311
1902.00000   -0.01721
1902.50000   -0.01091
1903.00000   -0.00434
1903.50000    0.00240
1904.00000    0.00919
1904.50000    0.01590
1905.00000    0.02243
1905.50000    0.02866
1906.00000    0.03449
1906.50000    0.03984
1907.00000    0.04462
1907.50000    0.04876
1908.00000    0.05220
1908.50000    0.05490
1909.00000    0.05682
1909.50000    0.05793
1910.00000    0.05821
1910.50000    0.05766
1911.00000    0.05628
1911.50000    0.05406
1912.00000    0.05103
1912.50000    0.04720
1913.00000    0.04261
1913.50000    0.03729
1914.00000    0.03130
1914.50000    0.02470
1915.00000    0.01755
1915.50000    0.00993
1916.00000    0.00195
1916.50000   -0.00629
1917.00000   -0.01467
1917.50000   -0.02308
1918.00000   -0.03136
1918.50000   -0.03937
1919.00000   -0.04696
1919.50000   -0.05397
1920.00000   -0.06024
1920.50000   -0.06561
1921.00000   -0.06993
1921.50000   -0.07304
1922.00000   -0.07480
1922.50000   -0.07509
1923.00000   -0.07381
1923.50000   -0.07085
1924.00000   -0.06615
1924.50000   -0.05967
1925.00000   -0.05141
1925.50000   -0.04138
1926.00000   -0.02963
1926.50000   -0.01626
1927.00000   -0.00140
1927.50000    0.01479
1928.00000    0.03211
1928.50000    0.05034
1929.00000    0.06921
1929.50000    0.08845
1930.00000    0.10775
1930.50000    0.12680
1931.00000    0.14528
1931.50000    0.16288
1932.00000    0.17930
1932.50000    0.19426
1933.00000    0.20749
1933.50000    0.21878
1934.00000    0.22793
1934.50000    0.23482
1935.00000    0.23933
1935.50000    0.24144
1936.00000    0.24114
1936.50000    0.23849
1937.00000    0.23359
1937.50000    0.22656
1938.00000    0.21760
1938.50000    0.20691
1939.00000    0.19472
1939.50000    0.18127
1940.00000    0.16682
1940.50000    0.15164
1941.00000    0.13597
1941.50000    0.12007
1942.00000    0.10417
1942.50000    0.08849
1943.00000    0.07322
1943.50000    0.05855
1944.00000    0.04463
1944.50000    0.03159
1945.00000    0.01955
1945.50000    0.00859
1946.00000   -0.00120
1946.50000   -0.00977
1947.00000   -0.01709
1947.50000   -0.02312
1948.00000   -0.02786
1948.50000   -0.03132
1949.00000   -0.03351
1949.50000   -0.03448
1950.00000   -0.03428
1950.50000   -0.03298
1951.00000   -0.03067
1951.50000   -0.02748
1952.00000   -0.02351
1952.50000   -0.01892
1953.00000   -0.01388
1953.50000   -0.00854
1954.00000   -0.00310
1954.50000    0.00225
1955.00000    0.00733
1955.50000    0.01195
1956.00000    0.01593
1956.50000    0.01911
1957.00000    0.02135
1957.50000    0.02255
1958.00000    0.02260
1958.50000    0.02147
1959.00000    0.01913
1959.50000    0.01562
1960.00000    0.01099
1960.50000    0.00534
1961.00000   -0.00120
1961.50000   -0.00848
1962.00000   -0.01630
1962.50000   -0.02448
1963.00000   -0.03279
1963.50000   -0.04102
1964.00000   -0.04895
1964.50000   -0.05639
1965.00000   -0.06315
1965.50000   -0.06907
1966.00000   -0.07400
1966.50000   -0.07784
1967.00000   -0.08052
1967.50000   -0.08201
1968.00000   -0.08229
1968.50000   -0.08141
1969.00000   -0.07940
1969.50000   -0.07636
1970.00000   -0.07238
1970.50000   -0.06759
1971.00000   -0.06211
1971.50000   -0.05608
1972.00000   -0.04962
1972.50000   -0.04288
1973.00000   -0.03597
1973.50000   -0.02901
1974.00000   -0.02210
1974.50000   -0.01534
1975.00000   -0.00879
1975.50000   -0.00253
1976.00000    0.00340
1976.50000    0.00896
1977.00000    0.01412
1977.50000    0.01886
1978.00000    0.02316
1978.50000    0.02702
1979.00000    0.03045
1979.50000    0.03343
1980.00000    0.03599
1980.50000    0.03813
1981.00000    0.03987
1981.50000    0.04124
1982.00000    0.04228
1982.50000    0.04301
1983.00000    0.04350
1983.50000    0.04379
1984.00000    0.04396
1984.50000    0.04408
1985.00000    0.04422
1985.50000    0.04446
1986.00000    0.04489
1986.50000    0.04558
1987.00000    0.04660
1987.50000    0.04801
1988.00000    0.04984
1988.50000    0.05213
1989.00000    0.05486
1989.50000    0.05801
1990.00000    0.06153
1990.50000    0.06534
1991.00000    0.06935
1991.50000    0.07343
1992.00000    0.07744
1992.50000    0.08125
1993.00000    0.08470
1993.50000    0.08764
1994.00000    0.08994
1994.50000    0.09147
1995.00000    0.09215
1995.50000    0.09190
1996.00000    0.09069
1996.50000    0.08852
1997.00000    0.08543
1997.50000    0.08150
1998.00000    0.07684
1998.50000    0.07158
1999.00000    0.06588
1999.50000    0.05991
2000.00000    0.05384
2000.50000    0.04786
2001.00000    0.04213
2001.50000    0.03678
2002.00000    0.03194
2002.50000    0.02768
2003.00000    0.02405
2003.50000    0.02105
2004.00000    0.01866
2004.50000    0.01681
2005.00000    0.01539
2005.50000    0.01429
2006.00000    0.01335
2006.50000    0.01244
2007.00000    0.01140
2007.50000    0.01009
2008.00000    0.00839
2008.50000    0.00620
2009.00000    0.00344
2009.50000    0.00009
2010.00000   -0.00385
2010.50000   -0.00835
2011.00000   -0.01335
2011.50000   -0.01875
2012.00000   -0.02443
2012.50000   -0.03025
2013.00000   -0.03609
2013.50000   -0.04178
2014.00000   -0.04721
2014.50000   -0.05223
2015.00000   -0.05674
2015.50000   -0.06066
2016.00000   -0.06390
2016.50000   -0.06644
2017.00000   -0.06824
2017.50000   -0.06931
2018.00000   -0.06966
2018.50000   -0.06934
2019.00000   -0.06838
2019.50000   -0.06685
2020.00000   -0.06480
2020.50000   -0.06230
2021.00000   -0.05940
2021.50000   -0.05617
2022.00000   -0.05265
2022.50000   -0.04891
2023.00000   -0.04497
2023.50000   -0.04089
2024.00000   -0.03671
2024.50000   -0.03245
2025.00000   -0.02816
2025.50000   -0.02387
2026.00000   -0.01962
2026.50000   -0.01544
2027.00000   -0.01138
2027.50000   -0.00747
2028.00000   -0.00376
2028.50000   -0.00027
2029.00000    0.00295
2029.50000    0.00588
2030.00000    0.00848
2030.50000    0.01073
2031.00000    0.01262
2031.50000    0.01413
2032.00000    0.01526
2032.50000    0.01600
2033.00000    0.01635
2033.50000    0.01632
2034.00000    0.01591
2034.50000    0.01512
2035.00000    0.01396
2035.50000    0.01243
2036.00000    0.01053
2036.50000    0.00828
2037.00000    0.00567
2037.50000    0.00272
2038.00000   -0.00057
2038.50000   -0.00416
2039.00000   -0.00805
2039.50000   -0.01217
2040.00000   -0.01650
2040.50000   -0.02096
2041.00000   -0.02548
2041.50000   -0.02999
2042.00000   -0.03439
2042.50000   -0.03858
2043.00000   -0.04245
2043.50000   -0.04589
2044.00000   -0.04879
2044.50000   -0.05106
2045.00000   -0.05260
2045.50000   -0.05333
2046.00000   -0.05319
2046.50000   -0.05214
2047.00000   -0.05015
2047.50000   -0.04724
2048.00000   -0.04343
2048.50000   -0.03879
2049.00000   -0.03340
2049.50000   -0.02737
2050.00000   -0.02084
2050.50000   -0.01396
2051.00000   -0.00691
2051.50000    0.00015
2052.00000    0.00701
2052.50000    0.01349
2053.00000    0.01940
2053.50000    0.02456
2054.00000    0.02882
2054.50000    0.03204
2055.00000    0.03410
2055.50000    0.03491
2056.00000    0.03442
2056.50000    0.03263
2057.00000    0.02955
2057.50000    0.02524
2058.00000    0.01981
2058.50000    0.01338
2059.00000    0.00612
2059.50000   -0.00177
2060.00000   -0.01008
2060.50000   -0.01858
2061.00000   -0.02704
2061.50000   -0.03521
2062.00000   -0.04286
2062.50000   -0.04977
2063.00000   -0.05574
2063.50000   -0.06062
2064.00000   -0.06425
2064.50000   -0.06656
2065.00000   -0.06748
2065.50000   -0.06700
2066.00000   -0.06515
2066.50000   -0.06199
2067.00000   -0.05764
2067.50000   -0.05222
2068.00000   -0.04590
2068.50000   -0.03884
2069.00000   -0.03125
2069.50000   -0.02330
2070.00000   -0.01517
2070.50000   -0.00705
2071.00000    0.00093
2071.50000    0.00864
2072.00000    0.01598
2072.50000    0.02287
2073.00000    0.02927
2073.50000    0.03518
2074.00000    0.04059
2074.50000    0.04554
2075.00000    0.05007
2075.50000    0.05424
2076.00000    0.05811
2076.50000    0.06173
2077.00000    0.06515
2077.50000    0.06840
2078.00000    0.07152
2078.50000    0.07450
2079.00000    0.07734
2079.50000    0.08001
2080.00000    0.08245
2080.50000    0.08464
2081.00000    0.08649
2081.50000    0.08795
2082.00000    0.08897
2082.50000    0.08947
2083.00000    0.08943
2083.50000    0.08881
2084.00000    0.08760
2084.50000    0.08578
2085.00000    0.08339
2085.50000    0.08044
2086.00000    0.07698
2086.50000    0.07305
2087.00000    0.06871
2087.50000    0.06401
2088.00000    0.05899
2088.50000    0.05371
2089.00000    0.04821
2089.50000    0.04252
2090.00000    0.03666
2090.50000    0.03065
2091.00000    0.02452
2091.50000    0.01828
2092.00000    0.01194
2092.50000    0.00554
2093.00000   -0.00091
2093.50000   -0.00735
2094.00000   -0.01373
2094.50000   -0.01999
2095.00000   -0.02603
2095.50000   -0.03178
2096.00000   -0.03712
2096.50000   -0.04196
2097.00000   -0.04620
2097.50000   -0.04975
2098.00000   -0.05251
2098.50000   -0.05443
2099.00000   -0.05547
2099.50000   -0.05561
2100.00000   -0.05487
2100.50000   -0.05329
2101.00000   -0.05095
2101.50000   -0.04795
2102.00000   -0.04441
2102.50000   -0.04047
2103.00000   -0.03630
2103.50000   -0.03203
2104.00000   -0.02784
2104.50000   -0.02385
2105.00000   -0.02020
2105.50000   -0.01699
2106.00000   -0.01429
2106.50000   -0.01215
2107.00000   -0.01058
2107.50000   -0.00957
2108.00000   -0.00907
2108.50000   -0.00902
2109.00000   -0.00933
2109.50000   -0.00992
2110.00000   -0.01068
2110.50000   -0.01151
2111.00000   -0.01234
2111.50000   -0.01307
2112.00000   -0.01367
2112.50000   -0.01411
2113.00000   -0.01437
2113.50000   -0.01447
2114.00000   -0.01447
2114.50000   -0.01441
2115.00000   -0.01437
2115.50000   -0.01445
2116.00000   -0.01472
2116.50000   -0.01529
2117.00000   -0.01622
2117.50000   -0.01758
2118.00000   -0.01940
2118.50000   -0.02172
2119.00000   -0.02452
2119.50000   -0.02775
2120.00000   -0.03135
2120.50000   -0.03522
2121.00000   -0.03924
2121.50000   -0.04327
2122.00000   -0.04714
2122.50000   -0.05069
2123.00000   -0.05375
2123.50000   -0.05615
2124.00000   -0.05776
2124.50000   -0.05844
2125.00000   -0.05809
2125.50000   -0.05664
2126.00000   -0.05408
2126.50000   -0.05039
2127.00000   -0.04564
2127.50000   -0.03992
2128.00000   -0.03336
2128.50000   -0.02612
2129.00000   -0.01838
2129.50000   -0.01036
2130.00000   -0.00228
2130.50000    0.00564
2131.00000    0.01318
2131.50000    0.02013
2132.00000    0.02632
2132.50000    0.03158
2133.00000    0.03582
2133.50000    0.03893
2134.00000    0.04090
2134.50000    0.04172
2135.00000    0.04145
2135.50000    0.04017
2136.00000    0.03799
2136.50000    0.03506
2137.00000    0.03153
2137.50000    0.02759
2138.00000    0.02340
2138.50000    0.01914
2139.00000    0.01497
2139.50000    0.01103
2140.00000    0.00745
2140.50000    0.00432
2141.00000    0.00172
2141.50000   -0.00031
2142.00000   -0.00175
2142.50000   -0.00260
2143.00000   -0.00288
2143.50000   -0.00263
2144.00000   -0.00191
2144.50000   -0.00077
2145.00000    0.00073
2145.50000    0.00251
2146.00000    0.00453
2146.50000    0.00671
2147.00000    0.00901
2147.50000    0.01138
2148.00000    0.01377
2148.50000    0.01615
2149.00000    0.01848
2149.50000    0.02073
2150.00000    0.02286
2150.50000    0.02485
2151.00000    0.02667
2151.50000    0.02829
2152.00000    0.02968
2152.50000    0.03082
2153.00000    0.03169
2153.50000    0.03226
2154.00000    0.03254
2154.50000    0.03251
2155.00000    0.03219
2155.50000    0.03159
2156.00000    0.03075
2156.50000    0.02971
2157.00000    0.02850
2157.50000    0.02721
2158.00000    0.02588
2158.50000    0.02459
2159.00000    0.02341
2159.50000    0.02239
2160.00000    0.02162
2160.50000    0.02112
2161.00000    0.02095
2161.50000    0.02112
2162.00000    0.02164
2162.50000    0.02251
2163.00000    0.02369
2163.50000    0.02515
2164.00000    0.02680
2164.50000    0.02860
2165.00000    0.03044
2165.50000    0.03223
2166.00000    0.03388
2166.50000    0.03529
2167.00000    0.03636
2167.50000    0.03701
2168.00000    0.03715
2168.50000    0.03672
2169.00000    0.03568
2169.50000    0.03398
2170.00000    0.03161
2170.50000    0.02859
2171.00000    0.02492
2171.50000    0.02066
2172.00000    0.01587
2172.50000    0.01061
2173.00000    0.00497
2173.50000   -0.00094
2174.00000   -0.00702
2174.50000   -0.01316
2175.00000   -0.01926
2175.50000   -0.02519
2176.00000   -0.03085
2176.50000   -0.03614
2177.00000   -0.04098
2177.50000   -0.04527
2178.00000   -0.04897
2178.50000   -0.05201
2179.00000   -0.05437
2179.50000   -0.05604
2180.00000   -0.05701
2180.50000   -0.05732
2181.00000   -0.05699
2181.50000   -0.05609
2182.00000   -0.05469
2182.50000   -0.05287
2183.00000   -0.05072
2183.50000   -0.04835
2184.00000   -0.04587
2184.50000   -0.04337
2185.00000   -0.04096
2185.50000   -0.03874
2186.00000   -0.03680
2186.50000   -0.03521
2187.00000   -0.03402
2187.50000   -0.03328
2188.00000   -0.03300
2188.50000   -0.03318
2189.00000   -0.03379
2189.50000   -0.03477
2190.00000   -0.03607
2190.50000   -0.03760
2191.00000   -0.03925
2191.50000   -0.04091
2192.00000   -0.04247
2192.50000   -0.04380
2193.00000   -0.04479
2193.50000   -0.04534
2194.00000   -0.04535
2194.50000   -0.04475
2195.00000   -0.04348
2195.50000   -0.04153
2196.00000   -0.03888
2196.50000   -0.03557
2197.00000   -0.03163
2197.50000   -0.02713
2198.00000   -0.02216
2198.50000   -0.01682
2199.00000   -0.01121
2199.50000   -0.00545
2200.00000    0.00036
2200.50000    0.00613
2201.00000    0.01175
2201.50000    0.01717
2202.00000    0.02233
2202.50000    0.02720
2203.00000    0.03176
2203.50000    0.03603
2204.00000    0.04002
2204.50000    0.04376
2205.00000    0.04731
2205.50000    0.05070
2206.00000    0.05398
2206.50000    0.05718
2207.00000    0.06033
2207.50000    0.06344
2208.00000    0.06651
2208.50000    0.06952
2209.00000    0.07242
2209.50000    0.07515
2210.00000    0.07765
2210.50000    0.07985
2211.00000    0.08164
2211.50000    0.08295
2212.00000    0.08368
2212.50000    0.08378
2213.00000    0.08317
2213.50000    0.08180
2214.00000    0.07965
2214.50000    0.07671
2215.00000    0.07298
2215.50000    0.06851
2216.00000    0.06333
2216.50000    0.05750
2217.00000    0.05112
2217.50000    0.04424
2218.00000    0.03698
2218.50000    0.02942
2219.00000    0.02165
2219.50000    0.01376
2220.00000    0.00583
2220.50000   -0.00206
2221.00000   -0.00983
2221.50000   -0.01743
2222.00000   -0.02479
2222.50000   -0.03187
2223.00000   -0.03861
2223.50000   -0.04499
2224.00000   -0.05095
2224.50000   -0.05647
2225.00000   -0.06151
2225.50000   -0.06604
2226.00000   -0.07005
2226.50000   -0.07352
2227.00000   -0.07642
2227.50000   -0.07875
2228.00000   -0.08050
2228.50000   -0.08167
2229.00000   -0.08228
2229.50000   -0.08233
2230.00000   -0.08184
2230.50000   -0.08083
2231.00000   -0.07932
2231.50000   -0.07734
2232.00000   -0.07490
2232.50000   -0.07203
2233.00000   -0.06875
2233.50000   -0.06508
2234.00000   -0.06104
2234.50000   -0.05665
2235.00000   -0.05192
2235.50000   -0.04687
2236.00000   -0.04152
2236.50000   -0.03591
2237.00000   -0.03007
2237.50000   -0.02404
2238.00000   -0.01788
2238.50000   -0.01165
2239.00000   -0.00542
2239.50000    0.00072
2240.00000    0.00668
2240.50000    0.01237
2241.00000    0.01770
2241.50000    0.02257
2242.00000    0.02690
2242.50000    0.03062
2243.00000    0.03366
2243.50000    0.03597
2244.00000    0.03753
2244.50000    0.03835
2245.00000    0.03842
2245.50000    0.03779
2246.00000    0.03653
2246.50000    0.03469
2247.00000    0.03239
2247.50000    0.02971
2248.00000    0.02676
2248.50000    0.02367
2249.00000    0.02055
2249.50000    0.01750
2250.00000    0.01464
2250.50000    0.01206
2251.00000    0.00985
2251.50000    0.00809
2252.00000    0.00684
2252.50000    0.00616
2253.00000    0.00608
2253.50000    0.00664
2254.00000    0.00786
2254.50000    0.00974
2255.00000    0.01228
2255.50000    0.01546
2256.00000    0.01926
2256.50000    0.02363
2257.00000    0.02851
2257.50000    0.03384
2258.00000    0.03953
2258.50000    0.04548
2259.00000    0.05157
2259.50000    0.05768
2260.00000    0.06366
2260.50000    0.06935
2261.00000    0.07462
2261.50000    0.07930
2262.00000    0.08323
2262.50000    0.08629
2263.00000    0.08834
2263.50000    0.08928
2264.00000    0.08901
2264.50000    0.08749
2265.00000    0.08468
2265.50000    0.08059
2266.00000    0.07525
2266.50000    0.06872
2267.00000    0.06110
2267.50000    0.05249
2268.00000    0.04302
2268.50000    0.03285
2269.00000    0.02213
2269.50000    0.01101
2270.00000   -0.00034
2270.50000   -0.01176
2271.00000   -0.02310
2271.50000   -0.03423
2272.00000   -0.04501
2272.50000   -0.05533
2273.00000   -0.06508
2273.50000   -0.07416
2274.00000   -0.08250
2274.50000   -0.09001
2275.00000   -0.09664
2275.50000   -0.10233
2276.00000   -0.10703
2276.50000   -0.11072
2277.00000   -0.11335
2277.50000   -0.11492
2278.00000   -0.11543
2278.50000   -0.11488
2279.00000   -0.11332
2279.50000   -0.11077
2280.00000   -0.10730
2280.50000   -0.10299
2281.00000   -0.09792
2281.50000   -0.09222
2282.00000   -0.08598
2282.50000   -0.07934
2283.00000   -0.07243
2283.50000   -0.06537
2284.00000   -0.05829
2284.50000   -0.05130
2285.00000   -0.04451
2285.50000   -0.03801
2286.00000   -0.03186
2286.50000   -0.02612
2287.00000   -0.02081
2287.50000   -0.01594
2288.00000   -0.01150
2288.50000   -0.00745
2289.00000   -0.00376
2289.50000   -0.00036
2290.00000    0.00283
2290.50000    0.00589
2291.00000    0.00888
2291.50000    0.01191
2292.00000    0.01504
2292.50000    0.01835
2293.00000    0.02189
2293.50000    0.02572
2294.00000    0.02985
2294.50000    0.03431
2295.00000    0.03909
2295.50000    0.04414
2296.00000    0.04943
2296.50000    0.05488
2297.00000    0.06040
2297.50000    0.06586
2298.00000    0.07115
2298.50000    0.07612
2299.00000    0.08063
2299.50000    0.08451
2300.00000    0.08763
2300.50000    0.08984
2301.00000    0.09101
2301.50000    0.09103
2302.00000    0.08983
2302.50000    0.08734
2303.00000    0.08356
2303.50000    0.07849
2304.00000    0.07220
2304.50000    0.06478
2305.00000    0.05634
2305.50000    0.04705
2306.00000    0.03709
2306.50000    0.02665
2307.00000    0.01595
2307.50000    0.00521
2308.00000   -0.00535
2308.50000   -0.01551
2309.00000   -0.02507
2309.50000   -0.03387
2310.00000   -0.04173
2310.50000   -0.04854
2311.00000   -0.05419
2311.50000   -0.05862
2312.00000   -0.06177
2312.50000   -0.06365
2313.00000   -0.06426
2313.50000   -0.06365
2314.00000   -0.06187
2314.50000   -0.05900
2315.00000   -0.05512
2315.50000   -0.05036
2316.00000   -0.04480
2316.50000   -0.03857
2317.00000   -0.03179
2317.50000   -0.02458
2318.00000   -0.01704
2318.50000   -0.00930
2319.00000   -0.00147
2319.50000    0.00636
2320.00000    0.01409
2320.50000    0.02163
2321.00000    0.02890
2321.50000    0.03585
2322.00000    0.04241
2322.50000    0.04853
2323.00000    0.05419
2323.50000    0.05933
2324.00000    0.06394
2324.50000    0.06800
2325.00000    0.07148
2325.50000    0.07436
2326.00000    0.07662
2326.50000    0.07822
2327.00000    0.07914
2327.50000    0.07934
2328.00000    0.07877
2328.50000    0.07739
2329.00000    0.07517
2329.50000    0.07206
2330.00000    0.06804
2330.50000    0.06308
2331.00000    0.05720
2331.50000    0.05042
2332.00000    0.04277
2332.50000    0.03433
2333.00000    0.02520
2333.50000    0.01551
2334.00000    0.00540
2334.50000   -0.00496
2335.00000   -0.01539
2335.50000   -0.02570
2336.00000   -0.03568
2336.50000   -0.04518
2337.00000   -0.05400
2337.50000   -0.06201
2338.00000   -0.06908
2338.50000   -0.07514
2339.00000   -0.08012
2339.50000   -0.08402
2340.00000   -0.08685
2340.50000   -0.08867
2341.00000   -0.08956
2341.50000   -0.08962
2342.00000   -0.08897
2342.50000   -0.08773
2343.00000   -0.08602
2343.50000   -0.08396
2344.00000   -0.08165
2344.50000   -0.07914
2345.00000   -0.07650
2345.50000   -0.07375
2346.00000   -0.07088
2346.50000   -0.06786
2347.00000   -0.06466
2347.50000   -0.06119
2348.00000   -0.05739
2348.50000   -0.05319
2349.00000   -0.04851
2349.50000   -0.04331
2350.00000   -0.03753
2350.50000   -0.03117
2351.00000   -0.02424
2351.50000   -0.01679
2352.00000   -0.00889
2352.50000   -0.00065
2353.00000    0.00782
2353.50000    0.01636
2354.00000    0.02479
2354.50000    0.03295
2355.00000    0.04066
2355.50000    0.04774
2356.00000    0.05403
2356.50000    0.05937
2357.00000    0.06365
2357.50000    0.06676
2358.00000    0.06863
2358.50000    0.06924
2359.00000    0.06855
2359.50000    0.06662
2360.00000    0.06349
2360.50000    0.05925
2361.00000    0.05401
2361.50000    0.04790
2362.00000    0.04109
2362.50000    0.03373
2363.00000    0.02603
2363.50000    0.01816
2364.00000    0.01032
2364.50000    0.00272
2365.00000   -0.00445
2365.50000   -0.01099
2366.00000   -0.01672
2366.50000   -0.02146
2367.00000   -0.02506
2367.50000   -0.02736
2368.00000   -0.02826
2368.50000   -0.02766
2369.00000   -0.02549
2369.50000   -0.02171
2370.00000   -0.01633
2370.50000   -0.00938
2371.00000   -0.00094
2371.50000    0.00887
2372.00000    0.01991
2372.50000    0.03199
2373.00000    0.04489
2373.50000    0.05836
2374.00000    0.07213
2374.50000    0.08591
2375.00000    0.09942
2375.50000    0.11235
2376.00000    0.12443
2376.50000    0.13539
2377.00000    0.14499
2377.50000    0.15303
2378.00000    0.15935
2378.50000    0.16384
2379.00000    0.16641
2379.50000    0.16706
2380.00000    0.16582
2380.50000    0.16277
2381.00000    0.15804
2381.50000    0.15178
2382.00000    0.14420
2382.50000    0.13550
2383.00000    0.12593
2383.50000    0.11571
2384.00000    0.10509
2384.50000    0.09427
2385.00000    0.08347
2385.50000    0.07287
2386.00000    0.06261
2386.50000    0.05282
2387.00000    0.04358
2387.50000    0.03494
2388.00000    0.02694
2388.50000    0.01958
2389.00000    0.01284
2389.50000    0.00667
2390.00000    0.00105
2390.50000   -0.00409
2391.00000   -0.00880
2391.50000   -0.01313
2392.00000   -0.01712
2392.50000   -0.02080
2393.00000   -0.02421
2393.50000   -0.02736
2394.00000   -0.03026
2394.50000   -0.03292
2395.00000   -0.03534
2395.50000   -0.03752
2396.00000   -0.03947
2396.50000   -0.04119
2397.00000   -0.04270
2397.50000   -0.04401
2398.00000   -0.04514
2398.50000   -0.04613
2399.00000   -0.04699
2399.50000   -0.04775
2400.00000   -0.04843
2400.50000   -0.04905
2401.00000   -0.04958
2401.50000   -0.05003
2402.00000   -0.05034
2402.50000   -0.05048
2403.00000   -0.05035
2403.50000   -0.04988
2404.00000   -0.04896
2404.50000   -0.04747
2405.00000   -0.04531
2405.50000   -0.04236
2406.00000   -0.03852
2406.50000   -0.03369
2407.00000   -0.02780
2407.50000   -0.02082
2408.00000   -0.01273
2408.50000   -0.00354
2409.00000    0.00669
2409.50000    0.01786
2410.00000    0.02987
2410.50000    0.04256
2411.00000    0.05577
2411.50000    0.06928
2412.00000    0.08291
2412.50000    0.09642
2413.00000    0.10960
2413.50000    0.12222
2414.00000    0.13406
2414.50000    0.14494
2415.00000    0.15464
2415.50000    0.16299
2416.00000    0.16985
2416.50000    0.17506
2417.00000    0.17853
2417.50000    0.18014
2418.00000    0.17985
2418.50000    0.17760
2419.00000    0.17339
2419.50000    0.16723
2420.00000    0.15917
2420.50000    0.14927
2421.00000    0.13765
2421.50000    0.12445
2422.00000    0.10984
2422.50000    0.09400
2423.00000    0.07717
2423.50000    0.05959
2424.00000    0.04151
2424.50000    0.02322
2425.00000    0.00500
2425.50000   -0.01289
2426.00000   -0.03017
2426.50000   -0.04658
2427.00000   -0.06189
2427.50000   -0.07588
2428.00000   -0.08839
2428.50000   -0.09926
2429.00000   -0.10839
2429.50000   -0.11570
2430.00000   -0.12116
2430.50000   -0.12477
2431.00000   -0.12657
2431.50000   -0.12662
2432.00000   -0.12501
2432.50000   -0.12187
2433.00000   -0.11732
2433.50000   -0.11152
2434.00000   -0.10462
2434.50000   -0.09681
2435.00000   -0.08825
2435.50000   -0.07913
2436.00000   -0.06962
2436.50000   -0.05989
2437.00000   -0.05012
2437.50000   -0.04046
2438.00000   -0.03106
2438.50000   -0.02207
2439.00000   -0.01361
2439.50000   -0.00579
2440.00000    0.00132
2440.50000    0.00764
2441.00000    0.01313
2441.50000    0.01776
2442.00000    0.02155
2442.50000    0.02452
2443.00000    0.02671
2443.50000    0.02821
2444.00000    0.02910
2444.50000    0.02948
2445.00000    0.02946
2445.50000    0.02915
2446.00000    0.02868
2446.50000    0.02815
2447.00000    0.02766
2447.50000    0.02731
2448.00000    0.02716
2448.50000    0.02727
2449.00000    0.02766
2449.50000    0.02836
2450.00000    0.02934
2450.50000    0.03058
2451.00000    0.03203
2451.50000    0.03366
2452.00000    0.03538
2452.50000    0.03715
2453.00000    0.03891
2453.50000    0.04059
2454.00000    0.04217
2454.50000    0.04360
2455.00000    0.04490
2455.50000    0.04605
2456.00000    0.04708
2456.50000    0.04803
2457.00000    0.04895
2457.50000    0.04991
2458.00000    0.05095
2458.50000    0.05215
2459.00000    0.05356
2459.50000    0.05523
2460.00000    0.05718
2460.50000    0.05942
2461.00000    0.06194
2461.50000    0.06472
2462.00000    0.06768
2462.50000    0.07075
2463.00000    0.07383
2463.50000    0.07681
2464.00000    0.07958
2464.50000    0.08199
2465.00000    0.08394
2465.50000    0.08530
2466.00000    0.08598
2466.50000    0.08590
2467.00000    0.08501
2467.50000    0.08327
2468.00000    0.08068
2468.50000    0.07728
2469.00000    0.07311
2469.50000    0.06826
2470.00000    0.06283
2470.50000    0.05694
2471.00000    0.05071
2471.50000    0.04428
2472.00000    0.03781
2472.50000    0.03142
2473.00000    0.02525
2473.50000    0.01942
2474.00000    0.01404
2474.50000    0.00921
2475.00000    0.00501
2475.50000    0.00149
2476.00000   -0.00130
2476.50000   -0.00333
2477.00000   -0.00459
2477.50000   -0.00510
2478.00000   -0.00487
2478.50000   -0.00395
2479.00000   -0.00237
2479.50000   -0.00020
2480.00000    0.00248
2480.50000    0.00560
2481.00000    0.00907
2481.50000    0.01279
2482.00000    0.01666
2482.50000    0.02059
2483.00000    0.02446
2483.50000    0.02819
2484.00000    0.03167
2484.50000    0.03482
2485.00000    0.03754
2485.50000    0.03977
2486.00000    0.04145
2486.50000    0.04251
2487.00000    0.04293
2487.50000    0.04268
2488.00000    0.04173
2488.50000    0.04009
2489.00000    0.03776
2489.50000    0.03476
2490.00000    0.03111
2490.50000    0.02686
2491.00000    0.02203
2491.50000    0.01669
2492.00000    0.01088
2492.50000    0.00466
2493.00000   -0.00191
2493.50000   -0.00875
2494.00000   -0.01579
2494.50000   -0.02296
2495.00000   -0.03018
2495.50000   -0.03736
2496.00000   -0.04443
2496.50000   -0.05129
2497.00000   -0.05786
2497.50000   -0.06407
2498.00000   -0.06981
2498.50000   -0.07503
2499.00000   -0.07964
2499.50000   -0.08358
2500.00000   -0.08679
2500.50000   -0.08921
2501.00000   -0.09079
2501.50000   -0.09150
2502.00000   -0.09132
2502.50000   -0.09023
2503.00000   -0.08822
2503.50000   -0.08530
2504.00000   -0.08149
2504.50000   -0.07684
2505.00000   -0.07138
2505.50000   -0.06520
2506.00000   -0.05837
2506.50000   -0.05101
2507.00000   -0.04321
2507.50000   -0.03514
2508.00000   -0.02691
2508.50000   -0.01871
2509.00000   -0.01070
2509.50000   -0.00304
2510.00000    0.00408
2510.50000    0.01051
2511.00000    0.01609
2511.50000    0.02068
2512.00000    0.02415
2512.50000    0.02643
2513.00000    0.02744
2513.50000    0.02715
2514.00000    0.02556
2514.50000    0.02271
2515.00000    0.01866
2515.50000    0.01352
2516.00000    0.00740
2516.50000    0.00046
2517.00000   -0.00714
2517.50000   -0.01521
2518.00000   -0.02355
2518.50000   -0.03198
2519.00000   -0.04029
2519.50000   -0.04829
2520.00000   -0.05580
2520.50000   -0.06265
2521.00000   -0.06868
2521.50000   -0.07376
2522.00000   -0.07778
2522.50000   -0.08063
2523.00000   -0.08226
2523.50000   -0.08263
2524.00000   -0.08171
2524.50000   -0.07953
2525.00000   -0.07613
2525.50000   -0.07159
2526.00000   -0.06599
2526.50000   -0.05948
2527.00000   -0.05219
2527.50000   -0.04430
2528.00000   -0.03600
2528.50000   -0.02747
2529.00000   -0.01891
2529.50000   -0.01053
2530.00000   -0.00251
2530.50000    0.00500
2531.00000    0.01183
2531.50000    0.01787
2532.00000    0.02305
2532.50000    0.02730
2533.00000    0.03063
2533.50000    0.03306
2534.00000    0.03465
2534.50000    0.03550
2535.00000    0.03571
2535.50000    0.03541
2536.00000    0.03477
2536.50000    0.03391
2537.00000    0.03298
2537.50000    0.03212
2538.00000    0.03141
2538.50000    0.03096
2539.00000    0.03081
2539.50000    0.03100
2540.00000    0.03152
2540.50000    0.03234
2541.00000    0.03341
2541.50000    0.03466
2542.00000    0.03600
2542.50000    0.03734
2543.00000    0.03856
2543.50000    0.03959
2544.00000    0.04033
2544.50000    0.04070
2545.00000    0.04064
2545.50000    0.04011
2546.00000    0.03908
2546.50000    0.03754
2547.00000    0.03551
2547.50000    0.03300
2548.00000    0.03006
2548.50000    0.02673
2549.00000    0.02309
2549.50000    0.01918
2550.00000    0.01509
2550.50000    0.01088
2551.00000    0.00663
2551.50000    0.00240
2552.00000   -0.00173
2552.50000   -0.00569
2553.00000   -0.00941
2553.50000   -0.01282
2554.00000   -0.01585
2554.50000   -0.01843
2555.00000   -0.02049
2555.50000   -0.02198
2556.00000   -0.02282
2556.50000   -0.02297
2557.00000   -0.02237
2557.50000   -0.02097
2558.00000   -0.01877
2558.50000   -0.01574
2559.00000   -0.01189
2559.50000   -0.00726
2560.00000   -0.00188
2560.50000    0.00415
2561.00000    0.01075
2561.50000    0.01779
2562.00000    0.02514
2562.50000    0.03262
2563.00000    0.04008
2563.50000    0.04733
2564.00000    0.05420
2564.50000    0.06051
2565.00000    0.06610
2565.50000    0.07084
2566.00000    0.07461
2566.50000    0.07734
2567.00000    0.07897
2567.50000    0.07952
2568.00000    0.07902
2568.50000    0.07754
2569.00000    0.07519
2569.50000    0.07211
2570.00000    0.06848
2570.50000    0.06446
2571.00000    0.06026
2571.50000    0.05605
2572.00000    0.05200
2572.50000    0.04827
2573.00000    0.04499
2573.50000    0.04223
2574.00000    0.04004
2574.50000    0.03845
2575.00000    0.03741
2575.50000    0.03687
2576.00000    0.03671
2576.50000    0.03681
2577.00000    0.03704
2577.50000    0.03722
2578.00000    0.03722
2578.50000    0.03689
2579.00000    0.03610
2579.50000    0.03473
2580.00000    0.03273
2580.50000    0.03003
2581.00000    0.02663
2581.50000    0.02256
2582.00000    0.01785
2582.50000    0.01259
2583.00000    0.00688
2583.50000    0.00084
2584.00000   -0.00543
2584.50000   -0.01179
2585.00000   -0.01813
2585.50000   -0.02434
2586.00000   -0.03032
2586.50000   -0.03601
2587.00000   -0.04133
2587.50000   -0.04627
2588.00000   -0.05079
2588.50000   -0.05491
2589.00000   -0.05865
2589.50000   -0.06203
2590.00000   -0.06511
2590.50000   -0.06793
2591.00000   -0.07056
2591.50000   -0.07305
2592.00000   -0.07546
2592.50000   -0.07784
2593.00000   -0.08025
2593.50000   -0.08273
2594.00000   -0.08531
2594.50000   -0.08803
2595.00000   -0.09091
2595.50000   -0.09394
2596.00000   -0.09714
2596.50000   -0.10048
2597.00000   -0.10393
2597.50000   -0.10746
2598.00000   -0.11099
2598.50000   -0.11447
2599.00000   -0.11781
2599.50000   -0.12091
2600.00000   -0.12366
2600.50000   -0.12596
2601.00000   -0.12768
2601.50000   -0.12872
2602.00000   -0.12896
2602.50000   -0.12833
2603.00000   -0.12674
2603.50000   -0.12415
2604.00000   -0.12052
2604.50000   -0.11588
2605.00000   -0.11024
2605.50000   -0.10369
2606.00000   -0.09633
2606.50000   -0.08827
2607.00000   -0.07967
2607.50000   -0.07070
2608.00000   -0.06153
2608.50000   -0.05233
2609.00000   -0.04329
2609.50000   -0.03454
2610.00000   -0.02623
2610.50000   -0.01848
2611.00000   -0.01135
2611.50000   -0.00491
2612.00000    0.00084
2612.50000    0.00592
2613.00000    0.01035
2613.50000    0.01422
2614.00000    0.01761
2614.50000    0.02061
2615.00000    0.02333
2615.50000    0.02587
2616.00000    0.02831
2616.50000    0.03075
2617.00000    0.03324
2617.50000    0.03582
2618.00000    0.03851
2618.50000    0.04131
2619.00000    0.04421
2619.50000    0.04717
2620.00000    0.05014
2620.50000    0.05306
2621.00000    0.05587
2621.50000    0.05850
2622.00000    0.06090
2622.50000    0.06300
2623.00000    0.06477
2623.50000    0.06617
2624.00000    0.06717
2624.50000    0.06776
2625.00000    0.06794
2625.50000    0.06772
2626.00000    0.06714
2626.50000    0.06621
2627.00000    0.06499
2627.50000    0.06353
2628.00000    0.06191
2628.50000    0.06018
2629.00000    0.05845
2629.50000    0.05682
2630.00000    0.05538
2630.50000    0.05427
2631.00000    0.05363
2631.50000    0.05358
2632.00000    0.05428
2632.50000    0.05589
2633.00000    0.05857
2633.50000    0.06246
2634.00000    0.06771
2634.50000    0.07446
2635.00000    0.08284
2635.50000    0.09293
2636.00000    0.10483
2636.50000    0.11858
2637.00000    0.13421
2637.50000    0.15173
2638.00000    0.17112
2638.50000    0.19234
2639.00000    0.21533
2639.50000    0.24002
2640.00000    0.26635
2640.50000    0.29424
2641.00000    0.32364
2641.50000    0.35449
2642.00000    0.38677
2642.50000    0.42049
2643.00000    0.45568
2643.50000    0.49239
2644.00000    0.53072
2644.50000    0.57081
2645.00000    0.61283
2645.50000    0.65695
2646.00000    0.70341
2646.50000    0.75244
2647.00000    0.80431
2647.50000    0.85929
2648.00000    0.91768
2648.50000    0.97976
2649.00000    1.04585
2649.50000    1.11624
2650.00000    1.19122
2650.50000    1.27111
2651.00000    1.35619
2651.50000    1.44675
2652.00000    1.54306
2652.50000    1.64541
2653.00000    1.75404
2653.50000    1.86920
2654.00000    1.99110
2654.50000    2.11995
2655.00000    2.25590
2655.50000    2.39909
2656.00000    2.54960
2656.50000    2.70747
2657.00000    2.87269
2657.50000    3.04520
2658.00000    3.22487
2658.50000    3.41150
2659.00000    3.60486
2659.50000    3.80464
2660.00000    4.01047
2660.50000    4.22193
2661.00000    4.43854
2661.50000    4.65981
2662.00000    4.88517
2662.50000    5.11404
2663.00000    5.34581
2663.50000    5.57985
2664.00000    5.81549
2664.50000    6.05208
2665.00000    6.28892
2665.50000    6.52531
2666.00000    6.76052
2666.50000    6.99380
2667.00000    7.22441
2667.50000    7.45154
2668.00000    7.67439
2668.50000    7.89212
2669.00000    8.10387
2669.50000    8.30877
2670.00000    8.50593
2670.50000    8.69445
2671.00000    8.87344
2671.50000    9.04201
2672.00000    9.19929
2672.50000    9.34447
2673.00000    9.47676
2673.50000    9.59543
2674.00000    9.69982
2674.50000    9.78936
2675.00000    9.86355
2675.50000    9.92197
2676.00000    9.96431
2676.50000    9.99036
2677.00000   10.00000
2677.50000    9.99321
2678.00000    9.97006
2678.50000    9.93072
2679.00000    9.87546
2679.50000    9.80462
2680.00000    9.71862
2680.50000    9.61797
2681.00000    9.50325
2681.50000    9.37511
2682.00000    9.23426
2682.50000    9.08147
2683.00000    8.91757
2683.50000    8.74344
2684.00000    8.55997
2684.50000    8.36812
2685.00000    8.16884
2685.50000    7.96310
2686.00000    7.75188
2686.50000    7.53612
2687.00000    7.31678
2687.50000    7.09475
2688.00000    6.87090
2688.50000    6.64604
2689.00000    6.42094
2689.50000    6.19631
2690.00000    5.97279
2690.50000    5.75097
2691.00000    5.53138
2691.50000    5.31449
2692.00000    5.10071
2692.50000    4.89043
2693.00000    4.68395
2693.50000    4.48159
2694.00000    4.28359
2694.50000    4.09019
2695.00000    3.90158
2695.50000    3.71797
2696.00000    3.53950
2696.50000    3.36633
2697.00000    3.19858
2697.50000    3.03636
2698.00000    2.87976
2698.50000    2.72885
2699.00000    2.58368
2699.50000    2.44427
2700.00000    2.31063
2700.50000    2.18275
2701.00000    2.06058
2701.50000    1.94409
2702.00000    1.83320
2702.50000    1.72783
2703.00000    1.62790
2703.50000    1.53331
2704.00000    1.44395
2704.50000    1.35972
2705.00000    1.28050
2705.50000    1.20618
2706.00000    1.13664
2706.50000    1.07175
2707.00000    1.01135
2707.50000    0.95531
2708.00000    0.90344
2708.50000    0.85555
2709.00000    0.81142
2709.50000    0.77081
2710.00000    0.73344
2710.50000    0.69903
2711.00000    0.66725
2711.50000    0.63776
2712.00000    0.61022
2712.50000    0.58426
2713.00000    0.55953
2713.50000    0.53569
2714.00000    0.51242
2714.50000    0.48943
2715.00000    0.46646
2715.50000    0.44331
2716.00000    0.41983
2716.50000    0.39593
2717.00000    0.37157
2717.50000    0.34679
2718.00000    0.32166
2718.50000    0.29632
2719.00000    0.27094
2719.50000    0.24573
2720.00000    0.22091
2720.50000    0.19674
2721.00000    0.17345
2721.50000    0.15129
2722.00000    0.13048
2722.50000    0.11120
2723.00000    0.09361
2723.50000    0.07784
2724.00000    0.06397
2724.50000    0.05204
2725.00000    0.04207
2725.50000    0.03401
2726.00000    0.02782
2726.50000    0.02340
2727.00000    0.02065
2727.50000    0.01944
2728.00000    0.01963
2728.50000    0.02109
2729.00000    0.02366
2729.50000    0.02719
2730.00000    0.03153
2730.50000    0.03653
2731.00000    0.04205
2731.50000    0.04792
2732.00000    0.05401
2732.50000    0.06016
2733.00000    0.06624
2733.50000    0.07209
2734.00000    0.07758
2734.50000    0.08256
2735.00000    0.08691
2735.50000    0.09052
2736.00000    0.09326
2736.50000    0.09504
2737.00000    0.09579
2737.50000    0.09544
2738.00000    0.09395
2738.50000    0.09129
2739.00000    0.08746
2739.50000    0.08247
2740.00000    0.07635
2740.50000    0.06915
2741.00000    0.06093
2741.50000    0.05176
2742.00000    0.04172
2742.50000    0.03092
2743.00000    0.01945
2743.50000    0.00742
2744.00000   -0.00503
2744.50000   -0.01779
2745.00000   -0.03070
2745.50000   -0.04362
2746.00000   -0.05639
2746.50000   -0.06884
2747.00000   -0.08080
2747.50000   -0.09208
2748.00000   -0.10251
2748.50000   -0.11191
2749.00000   -0.12011
2749.50000   -0.12697
2750.00000   -0.13235
2750.50000   -0.13616
2751.00000   -0.13833
2751.50000   -0.13882
2752.00000   -0.13766
2752.50000   -0.13490
2753.00000   -0.13064
2753.50000   -0.12503
2754.00000   -0.11826
2754.50000   -0.11053
2755.00000   -0.10208
2755.50000   -0.09318
2756.00000   -0.08407
2756.50000   -0.07502
2757.00000   -0.06626
2757.50000   -0.05801
2758.00000   -0.05045
2758.50000   -0.04373
2759.00000   -0.03795
2759.50000   -0.03317
2760.00000   -0.02943
2760.50000   -0.02670
2761.00000   -0.02493
2761.50000   -0.02405
2762.00000   -0.02397
2762.50000   -0.02457
2763.00000   -0.02576
2763.50000   -0.02741
2764.00000   -0.02943
2764.50000   -0.03172
2765.00000   -0.03419
2765.50000   -0.03678
2766.00000   -0.03940
2766.50000   -0.04202
2767.00000   -0.04456
2767.50000   -0.04698
2768.00000   -0.04921
2768.50000   -0.05119
2769.00000   -0.05285
2769.50000   -0.05410
2770.00000   -0.05487
2770.50000   -0.05506
2771.00000   -0.05459
2771.50000   -0.05337
2772.00000   -0.05135
2772.50000   -0.04846
2773.00000   -0.04469
2773.50000   -0.04004
2774.00000   -0.03455
2774.50000   -0.02829
2775.00000   -0.02138
2775.50000   -0.01395
2776.00000   -0.00616
2776.50000    0.00177
2777.00000    0.00966
2777.50000    0.01729
2778.00000    0.02444
2778.50000    0.03093
2779.00000    0.03657
2779.50000    0.04124
2780.00000    0.04482
2780.50000    0.04726
2781.00000    0.04854
2781.50000    0.04868
2782.00000    0.04778
2782.50000    0.04593
2783.00000    0.04329
2783.50000    0.04004
2784.00000    0.03637
2784.50000    0.03248
2785.00000    0.02857
2785.50000    0.02484
2786.00000    0.02146
2786.50000    0.01858
2787.00000    0.01632
2787.50000    0.01475
2788.00000    0.01394
2788.50000    0.01388
2789.00000    0.01455
2789.50000    0.01590
2790.00000    0.01784
2790.50000    0.02027
2791.00000    0.02307
2791.50000    0.02609
2792.00000    0.02922
2792.50000    0.03232
2793.00000    0.03526
2793.50000    0.03794
2794.00000    0.04026
2794.50000    0.04214
2795.00000    0.04353
2795.50000    0.04440
2796.00000    0.04473
2796.50000    0.04453
2797.00000    0.04381
2797.50000    0.04263
2798.00000    0.04102
2798.50000    0.03907
2799.00000    0.03686
2799.50000    0.03446
2800.00000    0.03198
2800.50000    0.02952
2801.00000    0.02720
2801.50000    0.02514
2802.00000    0.02344
2802.50000    0.02224
2803.00000    0.02165
2803.50000    0.02178
2804.00000    0.02274
2804.50000    0.02460
2805.00000    0.02745
2805.50000    0.03133
2806.00000    0.03626
2806.50000    0.04225
2807.00000    0.04925
2807.50000    0.05720
2808.00000    0.06599
2808.50000    0.07551
2809.00000    0.08559
2809.50000    0.09607
2810.00000    0.10676
2810.50000    0.11743
2811.00000    0.12790
2811.50000    0.13796
2812.00000    0.14739
2812.50000    0.15602
2813.00000    0.16367
2813.50000    0.17020
2814.00000    0.17547
2814.50000    0.17939
2815.00000    0.18187
2815.50000    0.18286
2816.00000    0.18235
2816.50000    0.18033
2817.00000    0.17684
2817.50000    0.17193
2818.00000    0.16567
2818.50000    0.15818
2819.00000    0.14957
2819.50000    0.13999
2820.00000    0.12961
2820.50000    0.11859
2821.00000    0.10715
2821.50000    0.09545
2822.00000    0.08371
2822.50000    0.07210
2823.00000    0.06081
2823.50000    0.04997
2824.00000    0.03972
2824.50000    0.03015
2825.00000    0.02130
2825.50000    0.01321
2826.00000    0.00583
2826.50000   -0.00089
2827.00000   -0.00703
2827.50000   -0.01272
2828.00000   -0.01808
2828.50000   -0.02325
2829.00000   -0.02834
2829.50000   -0.03347
2830.00000   -0.03873
2830.50000   -0.04417
2831.00000   -0.04979
2831.50000   -0.05558
2832.00000   -0.06147
2832.50000   -0.06735
2833.00000   -0.07310
2833.50000   -0.07856
2834.00000   -0.08357
2834.50000   -0.08796
2835.00000   -0.09156
2835.50000   -0.09423
2836.00000   -0.09584
2836.50000   -0.09630
2837.00000   -0.09555
2837.50000   -0.09355
2838.00000   -0.09031
2838.50000   -0.08585
2839.00000   -0.08024
2839.50000   -0.07355
2840.00000   -0.06585
2840.50000   -0.05724
2841.00000   -0.04782
2841.50000   -0.03765
2842.00000   -0.02684
2842.50000   -0.01545
2843.00000   -0.00356
2843.50000    0.00879
2844.00000    0.02154
2844.50000    0.03462
2845.00000    0.04800
2845.50000    0.06161
2846.00000    0.07539
2846.50000    0.08928
2847.00000    0.10321
2847.50000    0.11711
2848.00000    0.13091
2848.50000    0.14452
2849.00000    0.15787
2849.50000    0.17088
2850.00000    0.18349
2850.50000    0.19562
2851.00000    0.20722
2851.50000    0.21823
2852.00000    0.22859
2852.50000    0.23824
2853.00000    0.24714
2853.50000    0.25524
2854.00000    0.26249
2854.50000    0.26885
2855.00000    0.27427
2855.50000    0.27873
2856.00000    0.28221
2856.50000    0.28470
2857.00000    0.28620
2857.50000    0.28674
2858.00000    0.28637
2858.50000    0.28515
2859.00000    0.28317
2859.50000    0.28053
2860.00000    0.27735
2860.50000    0.27376
2861.00000    0.26988
2861.50000    0.26585
2862.00000    0.26178
2862.50000    0.25778
2863.00000    0.25394
2863.50000    0.25033
2864.00000    0.24698
2864.50000    0.24392
2865.00000    0.24115
2865.50000    0.23867
2866.00000    0.23643
2866.50000    0.23440
2867.00000    0.23254
2867.50000    0.23081
2868.00000    0.22917
2868.50000    0.22759
2869.00000    0.22604
2869.50000    0.22451
2870.00000    0.22297
2870.50000    0.22141
2871.00000    0.21982
2871.50000    0.21815
2872.00000    0.21640
2872.50000    0.21450
2873.00000    0.21242
2873.50000    0.21009
2874.00000    0.20743
2874.50000    0.20439
2875.00000    0.20089
2875.50000    0.19686
2876.00000    0.19225
2876.50000    0.18705
2877.00000    0.18122
2877.50000    0.17480
2878.00000    0.16783
2878.50000    0.16037
2879.00000    0.15252
2879.50000    0.14440
2880.00000    0.13614
2880.50000    0.12786
2881.00000    0.11972
2881.50000    0.11182
2882.00000    0.10430
2882.50000    0.09724
2883.00000    0.09071
2883.50000    0.08476
2884.00000    0.07938
2884.50000    0.07458
2885.00000    0.07030
2885.50000    0.06648
2886.00000    0.06305
2886.50000    0.05990
2887.00000    0.05694
2887.50000    0.05406
2888.00000    0.05114
2888.50000    0.04810
2889.00000    0.04485
2889.50000    0.04129
2890.00000    0.03735
2890.50000    0.03299
2891.00000    0.02815
2891.50000    0.02281
2892.00000    0.01695
2892.50000    0.01056
2893.00000    0.00367
2893.50000   -0.00372
2894.00000   -0.01155
2894.50000   -0.01980
2895.00000   -0.02840
2895.50000   -0.03731
2896.00000   -0.04645
2896.50000   -0.05578
2897.00000   -0.06524
2897.50000   -0.07478
2898.00000   -0.08437
2898.50000   -0.09397
2899.00000   -0.10359
2899.50000   -0.11320
