1200.50000   -0.05977
1201.00000   -0.05811
1201.50000   -0.05646
1202.00000   -0.05484
1202.50000   -0.05327
1203.00000   -0.05173
1203.50000   -0.05022
1204.00000   -0.04872
1204.50000   -0.04719
1205.00000   -0.04559
1205.50000   -0.04386
1206.00000   -0.04195
1206.50000   -0.03978
1207.00000   -0.03728
1207.50000   -0.03438
1208.00000   -0.03101
1208.50000   -0.02711
1209.00000   -0.02265
1209.50000   -0.01758
1210.00000   -0.01190
1210.50000   -0.00561
1211.00000    0.00127
1211.50000    0.00868
1212.00000    0.01656
1212.50000    0.02484
1213.00000    0.03341
1213.50000    0.04217
1214.00000    0.05100
1214.50000    0.05977
1215.00000    0.06835
1215.50000    0.07662
1216.00000    0.08443
1216.50000    0.09167
1217.00000    0.09822
1217.50000    0.10397
1218.00000    0.10882
1218.50000    0.11267
1219.00000    0.11546
1219.50000    0.11711
1220.00000    0.11759
1220.50000    0.11686
1221.00000    0.11490
1221.50000    0.11171
1222.00000    0.10730
1222.50000    0.10170
1223.00000    0.09497
1223.50000    0.08716
1224.00000    0.07836
1224.50000    0.06866
1225.00000    0.05819
1225.50000    0.04707
1226.00000    0.03546
1226.50000    0.02350
1227.00000    0.01137
1227.50000   -0.00076
1228.00000   -0.01271
1228.50000   -0.02429
1229.00000   -0.03533
1229.50000   -0.04565
1230.00000   -0.05508
1230.50000   -0.06349
1231.00000   -0.07074
1231.50000   -0.07671
1232.00000   -0.08133
1232.50000   -0.08454
1233.00000   -0.08630
1233.50000   -0.08663
1234.00000   -0.08555
1234.50000   -0.08314
1235.00000   -0.07949
1235.50000   -0.07474
1236.00000   -0.06903
1236.50000   -0.06254
1237.00000   -0.05548
1237.50000   -0.04804
1238.00000   -0.04045
1238.50000   -0.03291
1239.00000   -0.02565
1239.50000   -0.01887
1240.00000   -0.01274
1240.50000   -0.00744
1241.00000   -0.00310
1241.50000    0.00018
1242.00000    0.00233
1242.50000    0.00333
1243.00000    0.00319
1243.50000    0.00194
1244.00000   -0.00031
1244.50000   -0.00345
1245.00000   -0.00733
1245.50000   -0.01178
1246.00000   -0.01663
1246.50000   -0.02167
1247.00000   -0.02671
1247.50000   -0.03157
1248.00000   -0.03607
1248.50000   -0.04005
1249.00000   -0.04340
1249.50000   -0.04601
1250.00000   -0.04783
1250.50000   -0.04882
1251.00000   -0.04900
1251.50000   -0.04840
1252.00000   -0.04709
1252.50000   -0.04517
1253.00000   -0.04275
1253.50000   -0.03994
1254.00000   -0.03687
1254.50000   -0.03366
1255.00000   -0.03042
1255.50000   -0.02724
1256.00000   -0.02420
1256.50000   -0.02134
1257.00000   -0.01868
1257.50000   -0.01624
1258.00000   -0.01398
1258.50000   -0.01186
1259.00000   -0.00981
1259.50000   -0.00776
1260.00000   -0.00564
1260.50000   -0.00336
1261.00000   -0.00086
1261.50000    0.00190
1262.00000    0.00498
1262.50000    0.00836
1263.00000    0.01204
1263.50000    0.01598
1264.00000    0.02011
1264.50000    0.02433
1265.00000    0.02854
1265.50000    0.03262
1266.00000    0.03643
1266.50000    0.03985
1267.00000    0.04275
1267.50000    0.04502
1268.00000    0.04657
1268.50000    0.04734
1269.00000    0.04730
1269.50000    0.04645
1270.00000    0.04482
1270.50000    0.04248
1271.00000    0.03953
1271.50000    0.03610
1272.00000    0.03231
1272.50000    0.02835
1273.00000    0.02437
1273.50000    0.02054
1274.00000    0.01703
1274.50000    0.01397
1275.00000    0.01149
1275.50000    0.00968
1276.00000    0.00860
1276.50000    0.00829
1277.00000    0.00874
1277.50000    0.00990
1278.00000    0.01169
1278.50000    0.01402
1279.00000    0.01676
1279.50000    0.01975
1280.00000    0.02286
1280.50000    0.02590
1281.00000    0.02874
1281.50000    0.03122
1282.00000    0.03321
1282.50000    0.03461
1283.00000    0.03532
1283.50000    0.03529
1284.00000    0.03450
1284.50000    0.03294
1285.00000    0.03066
1285.50000    0.02771
1286.00000    0.02418
1286.50000    0.02015
1287.00000    0.01575
1287.50000    0.01109
1288.00000    0.00629
1288.50000    0.00145
1289.00000   -0.00332
1289.50000   -0.00792
1290.00000   -0.01230
1290.50000   -0.01639
1291.00000   -0.02017
1291.50000   -0.02362
1292.00000   -0.02675
1292.50000   -0.02958
1293.00000   -0.03215
1293.50000   -0.03451
1294.00000   -0.03669
1294.50000   -0.03875
1295.00000   -0.04073
1295.50000   -0.04266
1296.00000   -0.04454
1296.50000   -0.04638
1297.00000   -0.04815
1297.50000   -0.04981
1298.00000   -0.05129
1298.50000   -0.05251
1299.00000   -0.05337
1299.50000   -0.05377
1300.00000   -0.05358
1300.50000   -0.05270
1301.00000   -0.05101
1301.50000   -0.04841
1302.00000   -0.04482
1302.50000   -0.04019
1303.00000   -0.03447
1303.50000   -0.02767
1304.00000   -0.01981
1304.50000   -0.01094
1305.00000   -0.00116
1305.50000    0.00944
1306.00000    0.02071
1306.50000    0.03252
1307.00000    0.04472
1307.50000    0.05714
1308.00000    0.06964
1308.50000    0.08208
1309.00000    0.09433
1309.50000    0.10629
1310.00000    0.11789
1310.50000    0.12909
1311.00000    0.13985
1311.50000    0.15021
1312.00000    0.16018
1312.50000    0.16983
1313.00000    0.17923
1313.50000    0.18846
1314.00000    0.19761
1314.50000    0.20677
1315.00000    0.21599
1315.50000    0.22535
1316.00000    0.23488
1316.50000    0.24460
1317.00000    0.25452
1317.50000    0.26461
1318.00000    0.27482
1318.50000    0.28508
1319.00000    0.29534
1319.50000    0.30550
1320.00000    0.31549
1320.50000    0.32523
1321.00000    0.33466
1321.50000    0.34374
1322.00000    0.35246
1322.50000    0.36081
1323.00000    0.36886
1323.50000    0.37665
1324.00000    0.38431
1324.50000    0.39194
1325.00000    0.39971
1325.50000    0.40779
1326.00000    0.41634
1326.50000    0.42557
1327.00000    0.43564
1327.50000    0.44675
1328.00000    0.45903
1328.50000    0.47264
1329.00000    0.48768
1329.50000    0.50424
1330.00000    0.52235
1330.50000    0.54204
1331.00000    0.56328
1331.50000    0.58603
1332.00000    0.61020
1332.50000    0.63567
1333.00000    0.66232
1333.50000    0.68999
1334.00000    0.71848
1334.50000    0.74760
1335.00000    0.77714
1335.50000    0.80687
1336.00000    0.83654
1336.50000    0.86590
1337.00000    0.89469
1337.50000    0.92263
1338.00000    0.94945
1338.50000    0.97486
1339.00000    0.99858
1339.50000    1.02029
1340.00000    1.03973
1340.50000    1.05659
1341.00000    1.07060
1341.50000    1.08149
1342.00000    1.08903
1342.50000    1.09298
1343.00000    1.09316
1343.50000    1.08942
1344.00000    1.08165
1344.50000    1.06977
1345.00000    1.05377
1345.50000    1.03370
1346.00000    1.00963
1346.50000    0.98172
1347.00000    0.95016
1347.50000    0.91521
1348.00000    0.87714
1348.50000    0.83631
1349.00000    0.79306
1349.50000    0.74780
1350.00000    0.70094
1350.50000    0.65290
1351.00000    0.60412
1351.50000    0.55502
1352.00000    0.50604
1352.50000    0.45758
1353.00000    0.41005
1353.50000    0.36380
1354.00000    0.31919
1354.50000    0.27654
1355.00000    0.23612
1355.50000    0.19819
1356.00000    0.16297
1356.50000    0.13064
1357.00000    0.10133
1357.50000    0.07517
1358.00000    0.05222
1358.50000    0.03253
1359.00000    0.01610
1359.50000    0.00291
1360.00000   -0.00710
1360.50000   -0.01402
1361.00000   -0.01796
1361.50000   -0.01907
1362.00000   -0.01750
1362.50000   -0.01345
1363.00000   -0.00713
1363.50000    0.00125
1364.00000    0.01145
1364.50000    0.02321
1365.00000    0.03630
1365.50000    0.05046
1366.00000    0.06544
1366.50000    0.08099
1367.00000    0.09689
1367.50000    0.11290
1368.00000    0.12882
1368.50000    0.14447
1369.00000    0.15968
1369.50000    0.17429
1370.00000    0.18820
1370.50000    0.20130
1371.00000    0.21351
1371.50000    0.22480
1372.00000    0.23513
1372.50000    0.24450
1373.00000    0.25292
1373.50000    0.26044
1374.00000    0.26710
1374.50000    0.27295
1375.00000    0.27806
1375.50000    0.28251
1376.00000    0.28636
1376.50000    0.28966
1377.00000    0.29248
1377.50000    0.29486
1378.00000    0.29682
1378.50000    0.29838
1379.00000    0.29952
1379.50000    0.30022
1380.00000    0.30044
1380.50000    0.30010
1381.00000    0.29913
1381.50000    0.29743
1382.00000    0.29491
1382.50000    0.29146
1383.00000    0.28696
1383.50000    0.28132
1384.00000    0.27444
1384.50000    0.26625
1385.00000    0.25669
1385.50000    0.24572
1386.00000    0.23334
1386.50000    0.21956
1387.00000    0.20444
1387.50000    0.18806
1388.00000    0.17053
1388.50000    0.15199
1389.00000    0.13262
1389.50000    0.11259
1390.00000    0.09214
1390.50000    0.07147
1391.00000    0.05085
1391.50000    0.03051
1392.00000    0.01070
1392.50000   -0.00832
1393.00000   -0.02632
1393.50000   -0.04307
1394.00000   -0.05836
1394.50000   -0.07200
1395.00000   -0.08381
1395.50000   -0.09367
1396.00000   -0.10146
1396.50000   -0.10709
1397.00000   -0.11055
1397.50000   -0.11181
1398.00000   -0.11091
1398.50000   -0.10794
1399.00000   -0.10302
1399.50000   -0.09628
1400.00000   -0.08795
1400.50000   -0.07823
1401.00000   -0.06741
1401.50000   -0.05578
1402.00000   -0.04365
1402.50000   -0.03135
1403.00000   -0.01922
1403.50000   -0.00760
1404.00000    0.00320
1404.50000    0.01286
1405.00000    0.02112
1405.50000    0.02775
1406.00000    0.03256
1406.50000    0.03541
1407.00000    0.03624
1407.50000    0.03503
1408.00000    0.03182
1408.50000    0.02673
1409.00000    0.01993
1409.50000    0.01162
1410.00000    0.00207
1410.50000   -0.00842
1411.00000   -0.01954
1411.50000   -0.03095
1412.00000   -0.04232
1412.50000   -0.05333
1413.00000   -0.06369
1413.50000   -0.07312
1414.00000   -0.08141
1414.50000   -0.08837
1415.00000   -0.09386
1415.50000   -0.09780
1416.00000   -0.10015
1416.50000   -0.10094
1417.00000   -0.10020
1417.50000   -0.09803
1418.00000   -0.09454
1418.50000   -0.08987
1419.00000   -0.08416
1419.50000   -0.07758
1420.00000   -0.07028
1420.50000   -0.06239
1421.00000   -0.05404
1421.50000   -0.04535
1422.00000   -0.03642
1422.50000   -0.02731
1423.00000   -0.01809
1423.50000   -0.00882
1424.00000    0.00047
1424.50000    0.00974
1425.00000    0.01895
1425.50000    0.02807
1426.00000    0.03704
1426.50000    0.04580
1427.00000    0.05430
1427.50000    0.06244
1428.00000    0.07013
1428.50000    0.07728
1429.00000    0.08377
1429.50000    0.08950
1430.00000    0.09437
1430.50000    0.09829
1431.00000    0.10117
1431.50000    0.10296
1432.00000    0.10363
1432.50000    0.10318
1433.00000    0.10162
1433.50000    0.09902
1434.00000    0.09545
1434.50000    0.09103
1435.00000    0.08589
1435.50000    0.08018
1436.00000    0.07407
1436.50000    0.06773
1437.00000    0.06133
1437.50000    0.05504
1438.00000    0.04901
1438.50000    0.04337
1439.00000    0.03824
1439.50000    0.03371
1440.00000    0.02983
1440.50000    0.02664
1441.00000    0.02414
1441.50000    0.02229
1442.00000    0.02105
1442.50000    0.02036
1443.00000    0.02011
1443.50000    0.02021
1444.00000    0.02057
1444.50000    0.02106
1445.00000    0.02158
1445.50000    0.02204
1446.00000    0.02234
1446.50000    0.02241
1447.00000    0.02219
1447.50000    0.02163
1448.00000    0.02069
1448.50000    0.01938
1449.00000    0.01768
1449.50000    0.01562
1450.00000    0.01322
1450.50000    0.01053
1451.00000    0.00759
1451.50000    0.00446
1452.00000    0.00119
1452.50000   -0.00217
1453.00000   -0.00554
1453.50000   -0.00889
1454.00000   -0.01216
1454.50000   -0.01531
1455.00000   -0.01830
1455.50000   -0.02109
1456.00000   -0.02366
1456.50000   -0.02598
1457.00000   -0.02805
1457.50000   -0.02983
1458.00000   -0.03134
1458.50000   -0.03255
1459.00000   -0.03347
1459.50000   -0.03408
1460.00000   -0.03439
1460.50000   -0.03438
1461.00000   -0.03406
1461.50000   -0.03342
1462.00000   -0.03245
1462.50000   -0.03115
1463.00000   -0.02954
1463.50000   -0.02760
1464.00000   -0.02536
1464.50000   -0.02283
1465.00000   -0.02005
1465.50000   -0.01704
1466.00000   -0.01385
1466.50000   -0.01054
1467.00000   -0.00716
1467.50000   -0.00379
1468.00000   -0.00050
1468.50000    0.00266
1469.00000    0.00559
1469.50000    0.00825
1470.00000    0.01058
1470.50000    0.01254
1471.00000    0.01412
1471.50000    0.01532
1472.00000    0.01615
1472.50000    0.01667
1473.00000    0.01695
1473.50000    0.01709
1474.00000    0.01719
1474.50000    0.01737
1475.00000    0.01779
1475.50000    0.01855
1476.00000    0.01981
1476.50000    0.02168
1477.00000    0.02424
1477.50000    0.02758
1478.00000    0.03173
1478.50000    0.03669
1479.00000    0.04241
1479.50000    0.04880
1480.00000    0.05573
1480.50000    0.06302
1481.00000    0.07047
1481.50000    0.07784
1482.00000    0.08487
1482.50000    0.09130
1483.00000    0.09685
1483.50000    0.10128
1484.00000    0.10436
1484.50000    0.10589
1485.00000    0.10571
1485.50000    0.10373
1486.00000    0.09988
1486.50000    0.09418
1487.00000    0.08669
1487.50000    0.07753
1488.00000    0.06687
1488.50000    0.05494
1489.00000    0.04198
1489.50000    0.02828
1490.00000    0.01415
1490.50000   -0.00011
1491.00000   -0.01421
1491.50000   -0.02786
1492.00000   -0.04080
1492.50000   -0.05281
1493.00000   -0.06372
1493.50000   -0.07338
1494.00000   -0.08171
1494.50000   -0.08866
1495.00000   -0.09424
1495.50000   -0.09848
1496.00000   -0.10147
1496.50000   -0.10330
1497.00000   -0.10411
1497.50000   -0.10404
1498.00000   -0.10322
1498.50000   -0.10180
1499.00000   -0.09992
1499.50000   -0.09769
1500.00000   -0.09520
1500.50000   -0.09254
1501.00000   -0.08974
1501.50000   -0.08684
1502.00000   -0.08383
1502.50000   -0.08071
1503.00000   -0.07743
1503.50000   -0.07397
1504.00000   -0.07028
1504.50000   -0.06632
1505.00000   -0.06206
1505.50000   -0.05748
1506.00000   -0.05259
1506.50000   -0.04741
1507.00000   -0.04198
1507.50000   -0.03636
1508.00000   -0.03065
1508.50000   -0.02496
1509.00000   -0.01940
1509.50000   -0.01412
1510.00000   -0.00924
1510.50000   -0.00491
1511.00000   -0.00123
1511.50000    0.00168
1512.00000    0.00375
1512.50000    0.00493
1513.00000    0.00522
1513.50000    0.00463
1514.00000    0.00323
1514.50000    0.00113
1515.00000   -0.00155
1515.50000   -0.00464
1516.00000   -0.00795
1516.50000   -0.01128
1517.00000   -0.01444
1517.50000   -0.01723
1518.00000   -0.01946
1518.50000   -0.02097
1519.00000   -0.02165
1519.50000   -0.02139
1520.00000   -0.02017
1520.50000   -0.01799
1521.00000   -0.01490
1521.50000   -0.01102
1522.00000   -0.00649
1522.50000   -0.00149
1523.00000    0.00378
1523.50000    0.00908
1524.00000    0.01420
1524.50000    0.01891
1525.00000    0.02302
1525.50000    0.02635
1526.00000    0.02877
1526.50000    0.03020
1527.00000    0.03060
1527.50000    0.02998
1528.00000    0.02840
1528.50000    0.02598
1529.00000    0.02287
1529.50000    0.01924
1530.00000    0.01531
1530.50000    0.01127
1531.00000    0.00736
1531.50000    0.00375
1532.00000    0.00062
1532.50000   -0.00188
1533.00000   -0.00368
1533.50000   -0.00472
1534.00000   -0.00501
1534.50000   -0.00460
1535.00000   -0.00358
1535.50000   -0.00209
1536.00000   -0.00029
1536.50000    0.00165
1537.00000    0.00353
1537.50000    0.00516
1538.00000    0.00638
1538.50000    0.00704
1539.00000    0.00703
1539.50000    0.00626
1540.00000    0.00471
1540.50000    0.00240
1541.00000   -0.00062
1541.50000   -0.00425
1542.00000   -0.00833
1542.50000   -0.01271
1543.00000   -0.01721
1543.50000   -0.02161
1544.00000   -0.02574
1544.50000   -0.02940
1545.00000   -0.03244
1545.50000   -0.03471
1546.00000   -0.03613
1546.50000   -0.03661
1547.00000   -0.03614
1547.50000   -0.03473
1548.00000   -0.03244
1548.50000   -0.02933
1549.00000   -0.02554
1549.50000   -0.02117
1550.00000   -0.01640
1550.50000   -0.01135
1551.00000   -0.00620
1551.50000   -0.00107
1552.00000    0.00388
1552.50000    0.00854
1553.00000    0.01283
1553.50000    0.01667
1554.00000    0.02001
1554.50000    0.02283
1555.00000    0.02515
1555.50000    0.02700
1556.00000    0.02843
1556.50000    0.02953
1557.00000    0.03038
1557.50000    0.03113
1558.00000    0.03189
1558.50000    0.03283
1559.00000    0.03411
1559.50000    0.03592
1560.00000    0.03846
1560.50000    0.04194
1561.00000    0.04658
1561.50000    0.05261
1562.00000    0.06026
1562.50000    0.06979
1563.00000    0.08143
1563.50000    0.09542
1564.00000    0.11202
1564.50000    0.13145
1565.00000    0.15394
1565.50000    0.17968
1566.00000    0.20886
1566.50000    0.24165
1567.00000    0.27818
1567.50000    0.31857
1568.00000    0.36290
1568.50000    0.41121
1569.00000    0.46353
1569.50000    0.51984
1570.00000    0.58009
1570.50000    0.64419
1571.00000    0.71202
1571.50000    0.78342
1572.00000    0.85821
1572.50000    0.93615
1573.00000    1.01699
1573.50000    1.10041
1574.00000    1.18608
1574.50000    1.27363
1575.00000    1.36265
1575.50000    1.45269
1576.00000    1.54328
1576.50000    1.63391
1577.00000    1.72403
1577.50000    1.81309
1578.00000    1.90050
1578.50000    1.98568
1579.00000    2.06801
1579.50000    2.14688
1580.00000    2.22170
1580.50000    2.29187
1581.00000    2.35681
1581.50000    2.41598
1582.00000    2.46885
1582.50000    2.51494
1583.00000    2.55382
1583.50000    2.58510
1584.00000    2.60846
1584.50000    2.62362
1585.00000    2.63040
1585.50000    2.62866
1586.00000    2.61836
1586.50000    2.59952
1587.00000    2.57226
1587.50000    2.53677
1588.00000    2.49332
1588.50000    2.44228
1589.00000    2.38407
1589.50000    2.31920
1590.00000    2.24826
1590.50000    2.17187
1591.00000    2.09072
1591.50000    2.00554
1592.00000    1.91708
1592.50000    1.82613
1593.00000    1.73345
1593.50000    1.63983
1594.00000    1.54600
1594.50000    1.45268
1595.00000    1.36055
1595.50000    1.27020
1596.00000    1.18218
1596.50000    1.09696
1597.00000    1.01495
1597.50000    0.93646
1598.00000    0.86173
1598.50000    0.79091
1599.00000    0.72411
1599.50000    0.66136
1600.00000    0.60261
1600.50000    0.54782
1601.00000    0.49686
1601.50000    0.44959
1602.00000    0.40587
1602.50000    0.36552
1603.00000    0.32838
1603.50000    0.29427
1604.00000    0.26302
1604.50000    0.23449
1605.00000    0.20850
1605.50000    0.18492
1606.00000    0.16361
1606.50000    0.14443
1607.00000    0.12726
1607.50000    0.11198
1608.00000    0.09846
1608.50000    0.08657
1609.00000    0.07620
1609.50000    0.06722
1610.00000    0.05952
1610.50000    0.05296
1611.00000    0.04745
1611.50000    0.04287
1612.00000    0.03912
1612.50000    0.03612
1613.00000    0.03376
1613.50000    0.03199
1614.00000    0.03073
1614.50000    0.02991
1615.00000    0.02949
1615.50000    0.02939
1616.00000    0.02957
1616.50000    0.02996
1617.00000    0.03050
1617.50000    0.03111
1618.00000    0.03171
1618.50000    0.03223
1619.00000    0.03258
1619.50000    0.03266
1620.00000    0.03240
1620.50000    0.03171
1621.00000    0.03052
1621.50000    0.02879
1622.00000    0.02647
1622.50000    0.02356
1623.00000    0.02006
1623.50000    0.01603
1624.00000    0.01153
1624.50000    0.00664
1625.00000    0.00148
1625.50000   -0.00381
1626.00000   -0.00911
1626.50000   -0.01428
1627.00000   -0.01917
1627.50000   -0.02367
1628.00000   -0.02766
1628.50000   -0.03106
1629.00000   -0.03381
1629.50000   -0.03590
1630.00000   -0.03732
1630.50000   -0.03813
1631.00000   -0.03838
1631.50000   -0.03819
1632.00000   -0.03767
1632.50000   -0.03695
1633.00000   -0.03619
1633.50000   -0.03552
1634.00000   -0.03509
1634.50000   -0.03502
1635.00000   -0.03541
1635.50000   -0.03635
1636.00000   -0.03789
1636.50000   -0.04005
1637.00000   -0.04282
1637.50000   -0.04616
1638.00000   -0.05001
1638.50000   -0.05426
1639.00000   -0.05880
1639.50000   -0.06351
1640.00000   -0.06825
1640.50000   -0.07285
1641.00000   -0.07718
1641.50000   -0.08109
1642.00000   -0.08443
1642.50000   -0.08709
1643.00000   -0.08894
1643.50000   -0.08991
1644.00000   -0.08992
1644.50000   -0.08890
1645.00000   -0.08685
1645.50000   -0.08375
1646.00000   -0.07963
1646.50000   -0.07453
1647.00000   -0.06853
1647.50000   -0.06170
1648.00000   -0.05418
1648.50000   -0.04608
1649.00000   -0.03755
1649.50000   -0.02876
1650.00000   -0.01988
1650.50000   -0.01107
1651.00000   -0.00252
1651.50000    0.00561
1652.00000    0.01315
1652.50000    0.01996
1653.00000    0.02592
1653.50000    0.03091
1654.00000    0.03486
1654.50000    0.03773
1655.00000    0.03948
1655.50000    0.04015
1656.00000    0.03977
1656.50000    0.03842
1657.00000    0.03619
1657.50000    0.03322
1658.00000    0.02963
1658.50000    0.02558
1659.00000    0.02122
1659.50000    0.01671
1660.00000    0.01218
1660.50000    0.00778
1661.00000    0.00362
1661.50000   -0.00021
1662.00000   -0.00363
1662.50000   -0.00658
1663.00000   -0.00906
1663.50000   -0.01103
1664.00000   -0.01252
1664.50000   -0.01355
1665.00000   -0.01416
1665.50000   -0.01438
1666.00000   -0.01426
1666.50000   -0.01384
1667.00000   -0.01315
1667.50000   -0.01222
1668.00000   -0.01106
1668.50000   -0.00967
1669.00000   -0.00806
1669.50000   -0.00620
1670.00000   -0.00407
1670.50000   -0.00164
1671.00000    0.00110
1671.50000    0.00417
1672.00000    0.00760
1672.50000    0.01136
1673.00000    0.01546
1673.50000    0.01984
1674.00000    0.02446
1674.50000    0.02925
1675.00000    0.03413
1675.50000    0.03899
1676.00000    0.04373
1676.50000    0.04824
1677.00000    0.05241
1677.50000    0.05615
1678.00000    0.05937
1678.50000    0.06198
1679.00000    0.06395
1679.50000    0.06524
1680.00000    0.06584
1680.50000    0.06580
1681.00000    0.06514
1681.50000    0.06394
1682.00000    0.06229
1682.50000    0.06029
1683.00000    0.05803
1683.50000    0.05564
1684.00000    0.05321
1684.50000    0.05084
1685.00000    0.04860
1685.50000    0.04655
1686.00000    0.04471
1686.50000    0.04309
1687.00000    0.04168
1687.50000    0.04042
1688.00000    0.03926
1688.50000    0.03811
1689.00000    0.03688
1689.50000    0.03547
1690.00000    0.03378
1690.50000    0.03170
1691.00000    0.02915
1691.50000    0.02606
1692.00000    0.02236
1692.50000    0.01803
1693.00000    0.01305
1693.50000    0.00743
1694.00000    0.00123
1694.50000   -0.00551
1695.00000   -0.01269
1695.50000   -0.02021
1696.00000   -0.02796
1696.50000   -0.03579
1697.00000   -0.04357
1697.50000   -0.05114
1698.00000   -0.05837
1698.50000   -0.06510
1699.00000   -0.07120
1699.50000   -0.07653
1700.00000   -0.08098
1700.50000   -0.08444
1701.00000   -0.08683
1701.50000   -0.08809
1702.00000   -0.08817
1702.50000   -0.08706
1703.00000   -0.08476
1703.50000   -0.08131
1704.00000   -0.07679
1704.50000   -0.07128
1705.00000   -0.06492
1705.50000   -0.05783
1706.00000   -0.05020
1706.50000   -0.04221
1707.00000   -0.03406
1707.50000   -0.02595
1708.00000   -0.01809
1708.50000   -0.01068
1709.00000   -0.00388
1709.50000    0.00213
1710.00000    0.00725
1710.50000    0.01137
1711.00000    0.01445
1711.50000    0.01650
1712.00000    0.01755
1712.50000    0.01768
1713.00000    0.01701
1713.50000    0.01571
1714.00000    0.01394
1714.50000    0.01190
1715.00000    0.00980
1715.50000    0.00782
1716.00000    0.00614
1716.50000    0.00493
1717.00000    0.00430
1717.50000    0.00434
1718.00000    0.00510
1718.50000    0.00657
1719.00000    0.00870
1719.50000    0.01141
1720.00000    0.01456
1720.50000    0.01801
1721.00000    0.02159
1721.50000    0.02510
1722.00000    0.02837
1722.50000    0.03121
1723.00000    0.03348
1723.50000    0.03506
1724.00000    0.03585
1724.50000    0.03581
1725.00000    0.03492
1725.50000    0.03321
1726.00000    0.03076
1726.50000    0.02766
1727.00000    0.02404
1727.50000    0.02003
1728.00000    0.01580
1728.50000    0.01150
1729.00000    0.00726
1729.50000    0.00323
1730.00000   -0.00049
1730.50000   -0.00380
1731.00000   -0.00665
1731.50000   -0.00900
1732.00000   -0.01085
1732.50000   -0.01222
1733.00000   -0.01315
1733.50000   -0.01370
1734.00000   -0.01394
1734.50000   -0.01394
1735.00000   -0.01379
1735.50000   -0.01355
1736.00000   -0.01328
1736.50000   -0.01303
1737.00000   -0.01282
1737.50000   -0.01267
1738.00000   -0.01255
1738.50000   -0.01245
1739.00000   -0.01230
1739.50000   -0.01206
1740.00000   -0.01165
1740.50000   -0.01100
1741.00000   -0.01001
1741.50000   -0.00863
1742.00000   -0.00676
1742.50000   -0.00437
1743.00000   -0.00139
1743.50000    0.00219
1744.00000    0.00639
1744.50000    0.01118
1745.00000    0.01653
1745.50000    0.02237
1746.00000    0.02861
1746.50000    0.03513
1747.00000    0.04180
1747.50000    0.04846
1748.00000    0.05496
1748.50000    0.06110
1749.00000    0.06671
1749.50000    0.07161
1750.00000    0.07562
1750.50000    0.07859
1751.00000    0.08038
1751.50000    0.08088
1752.00000    0.08000
1752.50000    0.07772
1753.00000    0.07401
1753.50000    0.06892
1754.00000    0.06253
1754.50000    0.05495
1755.00000    0.04634
1755.50000    0.03687
1756.00000    0.02676
1756.50000    0.01622
1757.00000    0.00551
1757.50000   -0.00516
1758.00000   -0.01555
1758.50000   -0.02545
1759.00000   -0.03467
1759.50000   -0.04305
1760.00000   -0.05046
1760.50000   -0.05682
1761.00000   -0.06208
1761.50000   -0.06622
1762.00000   -0.06927
1762.50000   -0.07130
1763.00000   -0.07239
1763.50000   -0.07265
1764.00000   -0.07223
1764.50000   -0.07124
1765.00000   -0.06983
1765.50000   -0.06813
1766.00000   -0.06627
1766.50000   -0.06433
1767.00000   -0.06242
1767.50000   -0.06059
1768.00000   -0.05888
1768.50000   -0.05730
1769.00000   -0.05585
1769.50000   -0.05450
1770.00000   -0.05321
1770.50000   -0.05193
1771.00000   -0.05061
1771.50000   -0.04918
1772.00000   -0.04759
1772.50000   -0.04578
1773.00000   -0.04369
1773.50000   -0.04131
1774.00000   -0.03859
1774.50000   -0.03554
1775.00000   -0.03215
1775.50000   -0.02844
1776.00000   -0.02443
1776.50000   -0.02016
1777.00000   -0.01568
1777.50000   -0.01104
1778.00000   -0.00629
1778.50000   -0.00150
1779.00000    0.00327
1779.50000    0.00794
1780.00000    0.01247
1780.50000    0.01679
1781.00000    0.02084
1781.50000    0.02457
1782.00000    0.02793
1782.50000    0.03087
1783.00000    0.03336
1783.50000    0.03537
1784.00000    0.03689
1784.50000    0.03789
1785.00000    0.03839
1785.50000    0.03837
1786.00000    0.03788
1786.50000    0.03692
1787.00000    0.03555
1787.50000    0.03382
1788.00000    0.03177
1788.50000    0.02948
1789.00000    0.02702
1789.50000    0.02447
1790.00000    0.02189
1790.50000    0.01936
1791.00000    0.01696
1791.50000    0.01474
1792.00000    0.01276
1792.50000    0.01107
1793.00000    0.00969
1793.50000    0.00864
1794.00000    0.00792
1794.50000    0.00751
1795.00000    0.00738
1795.50000    0.00748
1796.00000    0.00776
1796.50000    0.00815
1797.00000    0.00857
1797.50000    0.00895
1798.00000    0.00920
1798.50000    0.00926
1799.00000    0.00905
1799.50000    0.00851
1800.00000    0.00759
1800.50000    0.00625
1801.00000    0.00446
1801.50000    0.00223
1802.00000   -0.00044
1802.50000   -0.00352
1803.00000   -0.00698
1803.50000   -0.01075
1804.00000   -0.01478
1804.50000   -0.01899
1805.00000   -0.02329
1805.50000   -0.02761
1806.00000   -0.03184
1806.50000   -0.03591
1807.00000   -0.03974
1807.50000   -0.04323
1808.00000   -0.04634
1808.50000   -0.04899
1809.00000   -0.05114
1809.50000   -0.05275
1810.00000   -0.05379
1810.50000   -0.05425
1811.00000   -0.05413
1811.50000   -0.05342
1812.00000   -0.05215
1812.50000   -0.05032
1813.00000   -0.04797
1813.50000   -0.04513
1814.00000   -0.04182
1814.50000   -0.03809
1815.00000   -0.03397
1815.50000   -0.02949
1816.00000   -0.02471
1816.50000   -0.01965
1817.00000   -0.01435
1817.50000   -0.00885
1818.00000   -0.00319
1818.50000    0.00260
1819.00000    0.00848
1819.50000    0.01441
1820.00000    0.02036
1820.50000    0.02628
1821.00000    0.03214
1821.50000    0.03790
1822.00000    0.04352
1822.50000    0.04896
1823.00000    0.05418
1823.50000    0.05913
1824.00000    0.06378
1824.50000    0.06809
1825.00000    0.07201
1825.50000    0.07550
1826.00000    0.07852
1826.50000    0.08103
1827.00000    0.08298
1827.50000    0.08434
1828.00000    0.08505
1828.50000    0.08509
1829.00000    0.08441
1829.50000    0.08298
1830.00000    0.08077
1830.50000    0.07777
1831.00000    0.07398
1831.50000    0.06938
1832.00000    0.06401
1832.50000    0.05789
1833.00000    0.05108
1833.50000    0.04366
1834.00000    0.03571
1834.50000    0.02733
1835.00000    0.01866
1835.50000    0.00983
1836.00000    0.00099
1836.50000   -0.00772
1837.00000   -0.01613
1837.50000   -0.02409
1838.00000   -0.03148
1838.50000   -0.03817
1839.00000   -0.04406
1839.50000   -0.04908
1840.00000   -0.05319
1840.50000   -0.05640
1841.00000   -0.05871
1841.50000   -0.06021
1842.00000   -0.06098
1842.50000   -0.06115
1843.00000   -0.06085
1843.50000   -0.06024
1844.00000   -0.05948
1844.50000   -0.05871
1845.00000   -0.05809
1845.50000   -0.05773
1846.00000   -0.05771
1846.50000   -0.05811
1847.00000   -0.05892
1847.50000   -0.06013
1848.00000   -0.06167
1848.50000   -0.06343
1849.00000   -0.06528
1849.50000   -0.06703
1850.00000   -0.06849
1850.50000   -0.06947
1851.00000   -0.06974
1851.50000   -0.06912
1852.00000   -0.06741
1852.50000   -0.06446
1853.00000   -0.06014
1853.50000   -0.05438
1854.00000   -0.04714
1854.50000   -0.03843
1855.00000   -0.02830
1855.50000   -0.01686
1856.00000   -0.00427
1856.50000    0.00932
1857.00000    0.02368
1857.50000    0.03859
1858.00000    0.05381
1858.50000    0.06910
1859.00000    0.08424
1859.50000    0.09899
1860.00000    0.11317
1860.50000    0.12659
1861.00000    0.13911
1861.50000    0.15061
1862.00000    0.16100
1862.50000    0.17022
1863.00000    0.17824
1863.50000    0.18505
1864.00000    0.19068
1864.50000    0.19515
1865.00000    0.19851
1865.50000    0.20084
1866.00000    0.20218
1866.50000    0.20263
1867.00000    0.20224
1867.50000    0.20111
1868.00000    0.19930
1868.50000    0.19688
1869.00000    0.19392
1869.50000    0.19048
1870.00000    0.18661
1870.50000    0.18237
1871.00000    0.17778
1871.50000    0.17289
1872.00000    0.16773
1872.50000    0.16231
1873.00000    0.15665
1873.50000    0.15076
1874.00000    0.14465
1874.50000    0.13833
1875.00000    0.13181
1875.50000    0.12511
1876.00000    0.11823
1876.50000    0.11121
1877.00000    0.10409
1877.50000    0.09691
1878.00000    0.08975
1878.50000    0.08267
1879.00000    0.07578
1879.50000    0.06918
1880.00000    0.06298
1880.50000    0.05731
1881.00000    0.05230
1881.50000    0.04806
1882.00000    0.04471
1882.50000    0.04236
1883.00000    0.04107
1883.50000    0.04092
1884.00000    0.04192
1884.50000    0.04406
1885.00000    0.04729
1885.50000    0.05154
1886.00000    0.05667
1886.50000    0.06253
1887.00000    0.06894
1887.50000    0.07567
1888.00000    0.08251
1888.50000    0.08921
1889.00000    0.09553
1889.50000    0.10124
1890.00000    0.10613
1890.50000    0.11002
1891.00000    0.11276
1891.50000    0.11424
1892.00000    0.11440
1892.50000    0.11322
1893.00000    0.11073
1893.50000    0.10699
1894.00000    0.10212
1894.50000    0.09625
1895.00000    0.08954
1895.50000    0.08217
1896.00000    0.07432
1896.50000    0.06617
1897.00000    0.05788
1897.50000    0.04960
1898.00000    0.04145
1898.50000    0.03353
1899.00000    0.02588
1899.50000    0.01855
1900.00000    0.01152
1900.50000    0.00476
1901.00000   -0.00178
1901.50000   -0.00818
1902.00000   -0.01451
1902.50000   -0.02086
1903.00000   -0.02731
1903.50000   -0.03395
1904.00000   -0.04082
1904.50000   -0.04797
1905.00000   -0.05542
1905.50000   -0.06315
1906.00000   -0.07114
1906.50000   -0.07933
1907.00000   -0.08766
1907.50000   -0.09604
1908.00000   -0.10438
1908.50000   -0.11256
1909.00000   -0.12050
1909.50000   -0.12810
1910.00000   -0.13525
1910.50000   -0.14189
1911.00000   -0.14794
1911.50000   -0.15333
1912.00000   -0.15804
1912.50000   -0.16200
1913.00000   -0.16521
1913.50000   -0.16763
1914.00000   -0.16924
1914.50000   -0.17001
1915.00000   -0.16993
1915.50000   -0.16897
1916.00000   -0.16709
1916.50000   -0.16426
1917.00000   -0.16043
1917.50000   -0.15558
1918.00000   -0.14965
1918.50000   -0.14261
1919.00000   -0.13441
1919.50000   -0.12505
1920.00000   -0.11449
1920.50000   -0.10274
1921.00000   -0.08982
1921.50000   -0.07575
1922.00000   -0.06059
1922.50000   -0.04440
1923.00000   -0.02728
1923.50000   -0.00932
1924.00000    0.00936
1924.50000    0.02861
1925.00000    0.04829
1925.50000    0.06824
1926.00000    0.08829
1926.50000    0.10825
1927.00000    0.12792
1927.50000    0.14712
1928.00000    0.16564
1928.50000    0.18326
1929.00000    0.19979
1929.50000    0.21500
1930.00000    0.22870
1930.50000    0.24068
1931.00000    0.25076
1931.50000    0.25878
1932.00000    0.26460
1932.50000    0.26811
1933.00000    0.26922
1933.50000    0.26791
1934.00000    0.26420
1934.50000    0.25814
1935.00000    0.24984
1935.50000    0.23948
1936.00000    0.22726
1936.50000    0.21344
1937.00000    0.19831
1937.50000    0.18220
1938.00000    0.16545
1938.50000    0.14841
1939.00000    0.13144
1939.50000    0.11487
1940.00000    0.09901
1940.50000    0.08415
1941.00000    0.07051
1941.50000    0.05828
1942.00000    0.04760
1942.50000    0.03852
1943.00000    0.03108
1943.50000    0.02524
1944.00000    0.02092
1944.50000    0.01800
1945.00000    0.01635
1945.50000    0.01579
1946.00000    0.01616
1946.50000    0.01729
1947.00000    0.01903
1947.50000    0.02124
1948.00000    0.02381
1948.50000    0.02666
1949.00000    0.02973
1949.50000    0.03300
1950.00000    0.03645
1950.50000    0.04010
1951.00000    0.04398
1951.50000    0.04811
1952.00000    0.05251
1952.50000    0.05719
1953.00000    0.06213
1953.50000    0.06731
1954.00000    0.07265
1954.50000    0.07805
1955.00000    0.08338
1955.50000    0.08849
1956.00000    0.09319
1956.50000    0.09727
1957.00000    0.10051
1957.50000    0.10270
1958.00000    0.10362
1958.50000    0.10309
1959.00000    0.10092
1959.50000    0.09700
1960.00000    0.09121
1960.50000    0.08354
1961.00000    0.07397
1961.50000    0.06260
1962.00000    0.04954
1962.50000    0.03496
1963.00000    0.01911
1963.50000    0.00225
1964.00000   -0.01530
1964.50000   -0.03321
1965.00000   -0.05112
1965.50000   -0.06865
1966.00000   -0.08545
1966.50000   -0.10117
1967.00000   -0.11548
1967.50000   -0.12809
1968.00000   -0.13875
1968.50000   -0.14725
1969.00000   -0.15344
1969.50000   -0.15722
1970.00000   -0.15855
1970.50000   -0.15747
1971.00000   -0.15403
1971.50000   -0.14837
1972.00000   -0.14068
1972.50000   -0.13118
1973.00000   -0.12012
1973.50000   -0.10780
1974.00000   -0.09453
1974.50000   -0.08063
1975.00000   -0.06643
1975.50000   -0.05224
1976.00000   -0.03837
1976.50000   -0.02510
1977.00000   -0.01267
1977.50000   -0.00130
1978.00000    0.00884
1978.50000    0.01763
1979.00000    0.02500
1979.50000    0.03092
1980.00000    0.03541
1980.50000    0.03855
1981.00000    0.04044
1981.50000    0.04124
1982.00000    0.04111
1982.50000    0.04028
1983.00000    0.03894
1983.50000    0.03732
1984.00000    0.03565
1984.50000    0.03412
1985.00000    0.03293
1985.50000    0.03225
1986.00000    0.03220
1986.50000    0.03289
1987.00000    0.03436
1987.50000    0.03663
1988.00000    0.03968
1988.50000    0.04345
1989.00000    0.04782
1989.50000    0.05267
1990.00000    0.05784
1990.50000    0.06314
1991.00000    0.06838
1991.50000    0.07336
1992.00000    0.07788
1992.50000    0.08176
1993.00000    0.08480
1993.50000    0.08687
1994.00000    0.08782
1994.50000    0.08755
1995.00000    0.08600
1995.50000    0.08314
1996.00000    0.07896
1996.50000    0.07350
1997.00000    0.06682
1997.50000    0.05903
1998.00000    0.05025
1998.50000    0.04064
1999.00000    0.03035
1999.50000    0.01958
2000.00000    0.00850
2000.50000   -0.00268
2001.00000   -0.01377
2001.50000   -0.02457
2002.00000   -0.03492
2002.50000   -0.04463
2003.00000   -0.05356
2003.50000   -0.06157
2004.00000   -0.06853
2004.50000   -0.07434
2005.00000   -0.07893
2005.50000   -0.08221
2006.00000   -0.08415
2006.50000   -0.08472
2007.00000   -0.08390
2007.50000   -0.08170
2008.00000   -0.07813
2008.50000   -0.07324
2009.00000   -0.06707
2009.50000   -0.05971
2010.00000   -0.05125
2010.50000   -0.04178
2011.00000   -0.03145
2011.50000   -0.02040
2012.00000   -0.00881
2012.50000    0.00315
2013.00000    0.01527
2013.50000    0.02734
2014.00000    0.03915
2014.50000    0.05046
2015.00000    0.06107
2015.50000    0.07076
2016.00000    0.07934
2016.50000    0.08666
2017.00000    0.09257
2017.50000    0.09698
2018.00000    0.09981
2018.50000    0.10106
2019.00000    0.10075
2019.50000    0.09894
2020.00000    0.09575
2020.50000    0.09131
2021.00000    0.08579
2021.50000    0.07939
2022.00000    0.07232
2022.50000    0.06479
2023.00000    0.05700
2023.50000    0.04916
2024.00000    0.04142
2024.50000    0.03395
2025.00000    0.02685
2025.50000    0.02022
2026.00000    0.01409
2026.50000    0.00847
2027.00000    0.00336
2027.50000   -0.00128
2028.00000   -0.00553
2028.50000   -0.00944
2029.00000   -0.01310
2029.50000   -0.01658
2030.00000   -0.01995
2030.50000   -0.02324
2031.00000   -0.02650
2031.50000   -0.02973
2032.00000   -0.03292
2032.50000   -0.03602
2033.00000   -0.03900
2033.50000   -0.04177
2034.00000   -0.04425
2034.50000   -0.04638
2035.00000   -0.04805
2035.50000   -0.04921
2036.00000   -0.04978
2036.50000   -0.04971
2037.00000   -0.04898
2037.50000   -0.04757
2038.00000   -0.04549
2038.50000   -0.04278
2039.00000   -0.03947
2039.50000   -0.03563
2040.00000   -0.03132
2040.50000   -0.02664
2041.00000   -0.02166
2041.50000   -0.01647
2042.00000   -0.01117
2042.50000   -0.00583
2043.00000   -0.00055
2043.50000    0.00460
2044.00000    0.00954
2044.50000    0.01420
2045.00000    0.01851
2045.50000    0.02239
2046.00000    0.02579
2046.50000    0.02864
2047.00000    0.03087
2047.50000    0.03242
2048.00000    0.03324
2048.50000    0.03326
2049.00000    0.03246
2049.50000    0.03078
2050.00000    0.02821
2050.50000    0.02475
2051.00000    0.02039
2051.50000    0.01518
2052.00000    0.00915
2052.50000    0.00240
2053.00000   -0.00501
2053.50000   -0.01294
2054.00000   -0.02128
2054.50000   -0.02988
2055.00000   -0.03859
2055.50000   -0.04726
2056.00000   -0.05571
2056.50000   -0.06380
2057.00000   -0.07138
2057.50000   -0.07829
2058.00000   -0.08441
2058.50000   -0.08963
2059.00000   -0.09385
2059.50000   -0.09698
2060.00000   -0.09898
2060.50000   -0.09980
2061.00000   -0.09942
2061.50000   -0.09782
2062.00000   -0.09502
2062.50000   -0.09106
2063.00000   -0.08596
2063.50000   -0.07979
2064.00000   -0.07262
2064.50000   -0.06452
2065.00000   -0.05558
2065.50000   -0.04592
2066.00000   -0.03562
2066.50000   -0.02482
2067.00000   -0.01361
2067.50000   -0.00214
2068.00000    0.00950
2068.50000    0.02118
2069.00000    0.03280
2069.50000    0.04426
2070.00000    0.05548
2070.50000    0.06639
2071.00000    0.07694
2071.50000    0.08711
2072.00000    0.09688
2072.50000    0.10626
2073.00000    0.11528
2073.50000    0.12398
2074.00000    0.13241
2074.50000    0.14063
2075.00000    0.14870
2075.50000    0.15668
2076.00000    0.16463
2076.50000    0.17259
2077.00000    0.18059
2077.50000    0.18862
2078.00000    0.19667
2078.50000    0.20471
2079.00000    0.21268
2079.50000    0.22050
2080.00000    0.22808
2080.50000    0.23531
2081.00000    0.24208
2081.50000    0.24829
2082.00000    0.25383
2082.50000    0.25861
2083.00000    0.26255
2083.50000    0.26560
2084.00000    0.26772
2084.50000    0.26893
2085.00000    0.26922
2085.50000    0.26864
2086.00000    0.26724
2086.50000    0.26510
2087.00000    0.26229
2087.50000    0.25889
2088.00000    0.25498
2088.50000    0.25063
2089.00000    0.24589
2089.50000    0.24080
2090.00000    0.23538
2090.50000    0.22963
2091.00000    0.22355
2091.50000    0.21710
2092.00000    0.21025
2092.50000    0.20296
2093.00000    0.19519
2093.50000    0.18692
2094.00000    0.17812
2094.50000    0.16880
2095.00000    0.15898
2095.50000    0.14871
2096.00000    0.13805
2096.50000    0.12709
2097.00000    0.11595
2097.50000    0.10475
2098.00000    0.09362
2098.50000    0.08270
2099.00000    0.07212
2099.50000    0.06198
2100.00000    0.05239
2100.50000    0.04341
2101.00000    0.03510
2101.50000    0.02745
2102.00000    0.02046
2102.50000    0.01409
2103.00000    0.00825
2103.50000    0.00286
2104.00000   -0.00217
2104.50000   -0.00695
2105.00000   -0.01158
2105.50000   -0.01615
2106.00000   -0.02072
2106.50000   -0.02535
2107.00000   -0.03005
2107.50000   -0.03480
2108.00000   -0.03957
2108.50000   -0.04428
2109.00000   -0.04883
2109.50000   -0.05312
2110.00000   -0.05702
2110.50000   -0.06040
2111.00000   -0.06313
2111.50000   -0.06508
2112.00000   -0.06617
2112.50000   -0.06631
2113.00000   -0.06545
2113.50000   -0.06356
2114.00000   -0.06064
2114.50000   -0.05671
2115.00000   -0.05183
2115.50000   -0.04607
2116.00000   -0.03950
2116.50000   -0.03221
2117.00000   -0.02432
2117.50000   -0.01592
2118.00000   -0.00710
2118.50000    0.00202
2119.00000    0.01136
2119.50000    0.02083
2120.00000    0.03035
2120.50000    0.03982
2121.00000    0.04916
2121.50000    0.05829
2122.00000    0.06710
2122.50000    0.07550
2123.00000    0.08338
2123.50000    0.09062
2124.00000    0.09710
2124.50000    0.10269
2125.00000    0.10727
2125.50000    0.11072
2126.00000    0.11293
2126.50000    0.11380
2127.00000    0.11326
2127.50000    0.11126
2128.00000    0.10778
2128.50000    0.10284
2129.00000    0.09648
2129.50000    0.08880
2130.00000    0.07992
2130.50000    0.06997
2131.00000    0.05916
2131.50000    0.04768
2132.00000    0.03575
2132.50000    0.02360
2133.00000    0.01147
2133.50000   -0.00042
2134.00000   -0.01185
2134.50000   -0.02261
2135.00000   -0.03253
2135.50000   -0.04146
2136.00000   -0.04929
2136.50000   -0.05592
2137.00000   -0.06131
2137.50000   -0.06545
2138.00000   -0.06835
2138.50000   -0.07006
2139.00000   -0.07067
2139.50000   -0.07029
2140.00000   -0.06903
2140.50000   -0.06705
2141.00000   -0.06450
2141.50000   -0.06155
2142.00000   -0.05836
2142.50000   -0.05509
2143.00000   -0.05190
2143.50000   -0.04892
2144.00000   -0.04627
2144.50000   -0.04405
2145.00000   -0.04232
2145.50000   -0.04113
2146.00000   -0.04050
2146.50000   -0.04040
2147.00000   -0.04079
2147.50000   -0.04161
2148.00000   -0.04277
2148.50000   -0.04415
2149.00000   -0.04565
2149.50000   -0.04713
2150.00000   -0.04847
2150.50000   -0.04955
2151.00000   -0.05026
2151.50000   -0.05049
2152.00000   -0.05018
2152.50000   -0.04926
2153.00000   -0.04770
2153.50000   -0.04549
2154.00000   -0.04264
2154.50000   -0.03918
2155.00000   -0.03515
2155.50000   -0.03061
2156.00000   -0.02564
2156.50000   -0.02029
2157.00000   -0.01465
2157.50000   -0.00879
2158.00000   -0.00276
2158.50000    0.00337
2159.00000    0.00956
2159.50000    0.01576
2160.00000    0.02193
2160.50000    0.02803
2161.00000    0.03404
2161.50000    0.03991
2162.00000    0.04559
2162.50000    0.05104
2163.00000    0.05618
2163.50000    0.06093
2164.00000    0.06521
2164.50000    0.06892
2165.00000    0.07193
2165.50000    0.07415
2166.00000    0.07545
2166.50000    0.07574
2167.00000    0.07491
2167.50000    0.07289
2168.00000    0.06964
2168.50000    0.06513
2169.00000    0.05940
2169.50000    0.05248
2170.00000    0.04449
2170.50000    0.03555
2171.00000    0.02583
2171.50000    0.01555
2172.00000    0.00494
2172.50000   -0.00575
2173.00000   -0.01625
2173.50000   -0.02629
2174.00000   -0.03559
2174.50000   -0.04389
2175.00000   -0.05096
2175.50000   -0.05659
2176.00000   -0.06059
2176.50000   -0.06282
2177.00000   -0.06319
2177.50000   -0.06163
2178.00000   -0.05814
2178.50000   -0.05274
2179.00000   -0.04552
2179.50000   -0.03659
2180.00000   -0.02612
2180.50000   -0.01428
2181.00000   -0.00132
2181.50000    0.01252
2182.00000    0.02696
2182.50000    0.04171
2183.00000    0.05646
2183.50000    0.07089
2184.00000    0.08471
2184.50000    0.09759
2185.00000    0.10924
2185.50000    0.11941
2186.00000    0.12784
2186.50000    0.13434
2187.00000    0.13875
2187.50000    0.14096
2188.00000    0.14092
2188.50000    0.13865
2189.00000    0.13421
2189.50000    0.12774
2190.00000    0.11943
2190.50000    0.10952
2191.00000    0.09828
2191.50000    0.08606
2192.00000    0.07317
2192.50000    0.05997
2193.00000    0.04680
2193.50000    0.03398
2194.00000    0.02179
2194.50000    0.01049
2195.00000    0.00027
2195.50000   -0.00876
2196.00000   -0.01652
2196.50000   -0.02301
2197.00000   -0.02828
2197.50000   -0.03244
2198.00000   -0.03565
2198.50000   -0.03808
2199.00000   -0.03993
2199.50000   -0.04139
2200.00000   -0.04265
2200.50000   -0.04385
2201.00000   -0.04512
2201.50000   -0.04653
2202.00000   -0.04808
2202.50000   -0.04974
2203.00000   -0.05140
2203.50000   -0.05291
2204.00000   -0.05409
2204.50000   -0.05471
2205.00000   -0.05452
2205.50000   -0.05328
2206.00000   -0.05075
2206.50000   -0.04670
2207.00000   -0.04097
2207.50000   -0.03340
2208.00000   -0.02392
2208.50000   -0.01250
2209.00000    0.00081
2209.50000    0.01592
2210.00000    0.03266
2210.50000    0.05083
2211.00000    0.07017
2211.50000    0.09038
2212.00000    0.11114
2212.50000    0.13212
2213.00000    0.15297
2213.50000    0.17334
2214.00000    0.19291
2214.50000    0.21136
2215.00000    0.22839
2215.50000    0.24373
2216.00000    0.25714
2216.50000    0.26840
2217.00000    0.27735
2217.50000    0.28382
2218.00000    0.28771
2218.50000    0.28893
2219.00000    0.28743
2219.50000    0.28319
2220.00000    0.27625
2220.50000    0.26664
2221.00000    0.25447
2221.50000    0.23985
2222.00000    0.22295
2222.50000    0.20397
2223.00000    0.18314
2223.50000    0.16072
2224.00000    0.13700
2224.50000    0.11230
2225.00000    0.08694
2225.50000    0.06127
2226.00000    0.03565
2226.50000    0.01042
2227.00000   -0.01408
2227.50000   -0.03752
2228.00000   -0.05958
2228.50000   -0.07999
2229.00000   -0.09849
2229.50000   -0.11486
2230.00000   -0.12893
2230.50000   -0.14054
2231.00000   -0.14960
2231.50000   -0.15605
2232.00000   -0.15989
2232.50000   -0.16113
2233.00000   -0.15985
2233.50000   -0.15616
2234.00000   -0.15021
2234.50000   -0.14218
2235.00000   -0.13228
2235.50000   -0.12076
2236.00000   -0.10787
2236.50000   -0.09391
2237.00000   -0.07916
2237.50000   -0.06391
2238.00000   -0.04847
2238.50000   -0.03312
2239.00000   -0.01813
2239.50000   -0.00374
2240.00000    0.00981
2240.50000    0.02235
2241.00000    0.03371
2241.50000    0.04380
2242.00000    0.05253
2242.50000    0.05987
2243.00000    0.06583
2243.50000    0.07045
2244.00000    0.07379
2244.50000    0.07595
2245.00000    0.07704
2245.50000    0.07717
2246.00000    0.07647
2246.50000    0.07508
2247.00000    0.07311
2247.50000    0.07067
2248.00000    0.06786
2248.50000    0.06476
2249.00000    0.06146
2249.50000    0.05801
2250.00000    0.05446
2250.50000    0.05086
2251.00000    0.04725
2251.50000    0.04368
2252.00000    0.04018
2252.50000    0.03682
2253.00000    0.03365
2253.50000    0.03072
2254.00000    0.02812
2254.50000    0.02590
2255.00000    0.02414
2255.50000    0.02290
2256.00000    0.02224
2256.50000    0.02218
2257.00000    0.02275
2257.50000    0.02395
2258.00000    0.02574
2258.50000    0.02806
2259.00000    0.03084
2259.50000    0.03395
2260.00000    0.03727
2260.50000    0.04066
2261.00000    0.04396
2261.50000    0.04701
2262.00000    0.04968
2262.50000    0.05183
2263.00000    0.05335
2263.50000    0.05415
2264.00000    0.05421
2264.50000    0.05350
2265.00000    0.05205
2265.50000    0.04993
2266.00000    0.04723
2266.50000    0.04408
2267.00000    0.04064
2267.50000    0.03705
2268.00000    0.03348
2268.50000    0.03010
2269.00000    0.02705
2269.50000    0.02445
2270.00000    0.02242
2270.50000    0.02100
2271.00000    0.02024
2271.50000    0.02012
2272.00000    0.02060
2272.50000    0.02162
2273.00000    0.02305
2273.50000    0.02479
2274.00000    0.02669
2274.50000    0.02860
2275.00000    0.03037
2275.50000    0.03186
2276.00000    0.03296
2276.50000    0.03356
2277.00000    0.03359
2277.50000    0.03299
2278.00000    0.03177
2278.50000    0.02992
2279.00000    0.02751
2279.50000    0.02460
2280.00000    0.02128
2280.50000    0.01768
2281.00000    0.01391
2281.50000    0.01011
2282.00000    0.00640
2282.50000    0.00290
2283.00000   -0.00028
2283.50000   -0.00304
2284.00000   -0.00533
2284.50000   -0.00709
2285.00000   -0.00831
2285.50000   -0.00899
2286.00000   -0.00917
2286.50000   -0.00889
2287.00000   -0.00824
2287.50000   -0.00730
2288.00000   -0.00618
2288.50000   -0.00497
2289.00000   -0.00380
2289.50000   -0.00275
2290.00000   -0.00193
2290.50000   -0.00141
2291.00000   -0.00125
2291.50000   -0.00151
2292.00000   -0.00220
2292.50000   -0.00333
2293.00000   -0.00489
2293.50000   -0.00685
2294.00000   -0.00918
2294.50000   -0.01183
2295.00000   -0.01474
2295.50000   -0.01788
2296.00000   -0.02120
2296.50000   -0.02467
2297.00000   -0.02828
2297.50000   -0.03202
2298.00000   -0.03590
2298.50000   -0.03996
2299.00000   -0.04423
2299.50000   -0.04875
2300.00000   -0.05357
2300.50000   -0.05873
2301.00000   -0.06425
2301.50000   -0.07016
2302.00000   -0.07643
2302.50000   -0.08303
2303.00000   -0.08986
2303.50000   -0.09682
2304.00000   -0.10376
2304.50000   -0.11050
2305.00000   -0.11682
2305.50000   -0.12249
2306.00000   -0.12728
2306.50000   -0.13094
2307.00000   -0.13323
2307.50000   -0.13395
2308.00000   -0.13292
2308.50000   -0.13001
2309.00000   -0.12515
2309.50000   -0.11833
2310.00000   -0.10961
2310.50000   -0.09910
2311.00000   -0.08699
2311.50000   -0.07352
2312.00000   -0.05899
2312.50000   -0.04373
2313.00000   -0.02810
2313.50000   -0.01247
2314.00000    0.00279
2314.50000    0.01736
2315.00000    0.03092
2315.50000    0.04322
2316.00000    0.05407
2316.50000    0.06335
2317.00000    0.07101
2317.50000    0.07708
2318.00000    0.08166
2318.50000    0.08491
2319.00000    0.08708
2319.50000    0.08843
2320.00000    0.08927
2320.50000    0.08993
2321.00000    0.09075
2321.50000    0.09204
2322.00000    0.09409
2322.50000    0.09713
2323.00000    0.10137
2323.50000    0.10692
2324.00000    0.11383
2324.50000    0.12209
2325.00000    0.13159
2325.50000    0.14218
2326.00000    0.15362
2326.50000    0.16562
2327.00000    0.17786
2327.50000    0.18998
2328.00000    0.20159
2328.50000    0.21233
2329.00000    0.22182
2329.50000    0.22975
2330.00000    0.23580
2330.50000    0.23975
2331.00000    0.24142
2331.50000    0.24070
2332.00000    0.23755
2332.50000    0.23202
2333.00000    0.22421
2333.50000    0.21430
2334.00000    0.20252
2334.50000    0.18917
2335.00000    0.17455
2335.50000    0.15903
2336.00000    0.14295
2336.50000    0.12669
2337.00000    0.11058
2337.50000    0.09494
2338.00000    0.08005
2338.50000    0.06616
2339.00000    0.05344
2339.50000    0.04202
2340.00000    0.03198
2340.50000    0.02334
2341.00000    0.01607
2341.50000    0.01008
2342.00000    0.00527
2342.50000    0.00148
2343.00000   -0.00146
2343.50000   -0.00371
2344.00000   -0.00545
2344.50000   -0.00685
2345.00000   -0.00807
2345.50000   -0.00924
2346.00000   -0.01045
2346.50000   -0.01179
2347.00000   -0.01328
2347.50000   -0.01495
2348.00000   -0.01678
2348.50000   -0.01872
2349.00000   -0.02072
2349.50000   -0.02270
2350.00000   -0.02458
2350.50000   -0.02627
2351.00000   -0.02772
2351.50000   -0.02884
2352.00000   -0.02960
2352.50000   -0.02996
2353.00000   -0.02992
2353.50000   -0.02948
2354.00000   -0.02868
2354.50000   -0.02757
2355.00000   -0.02622
2355.50000   -0.02469
2356.00000   -0.02306
2356.50000   -0.02141
2357.00000   -0.01980
2357.50000   -0.01829
2358.00000   -0.01690
2358.50000   -0.01567
2359.00000   -0.01458
2359.50000   -0.01359
2360.00000   -0.01266
2360.50000   -0.01171
2361.00000   -0.01066
2361.50000   -0.00939
2362.00000   -0.00780
2362.50000   -0.00579
2363.00000   -0.00325
2363.50000   -0.00010
2364.00000    0.00375
2364.50000    0.00833
2365.00000    0.01369
2365.50000    0.01981
2366.00000    0.02668
2366.50000    0.03425
2367.00000    0.04245
2367.50000    0.05119
2368.00000    0.06038
2368.50000    0.06990
2369.00000    0.07964
2369.50000    0.08949
2370.00000    0.09933
2370.50000    0.10905
2371.00000    0.11855
2371.50000    0.12774
2372.00000    0.13653
2372.50000    0.14484
2373.00000    0.15258
2373.50000    0.15967
2374.00000    0.16605
2374.50000    0.17163
2375.00000    0.17634
2375.50000    0.18010
2376.00000    0.18284
2376.50000    0.18448
2377.00000    0.18497
2377.50000    0.18426
2378.00000    0.18230
2378.50000    0.17909
2379.00000    0.17463
2379.50000    0.16895
2380.00000    0.16212
2380.50000    0.15421
2381.00000    0.14535
2381.50000    0.13567
2382.00000    0.12532
2382.50000    0.11447
2383.00000    0.10329
2383.50000    0.09195
2384.00000    0.08063
2384.50000    0.06949
2385.00000    0.05866
2385.50000    0.04827
2386.00000    0.03842
2386.50000    0.02918
2387.00000    0.02061
2387.50000    0.01273
2388.00000    0.00556
2388.50000   -0.00091
2389.00000   -0.00670
2389.50000   -0.01184
2390.00000   -0.01636
2390.50000   -0.02031
2391.00000   -0.02372
2391.50000   -0.02663
2392.00000   -0.02910
2392.50000   -0.03117
2393.00000   -0.03289
2393.50000   -0.03430
2394.00000   -0.03548
2394.50000   -0.03648
2395.00000   -0.03738
2395.50000   -0.03826
2396.00000   -0.03918
2396.50000   -0.04025
2397.00000   -0.04155
2397.50000   -0.04314
2398.00000   -0.04510
2398.50000   -0.04748
2399.00000   -0.05031
2399.50000   -0.05361
2400.00000   -0.05736
2400.50000   -0.06153
2401.00000   -0.06602
2401.50000   -0.07075
2402.00000   -0.07559
2402.50000   -0.08038
2403.00000   -0.08495
2403.50000   -0.08912
2404.00000   -0.09269
2404.50000   -0.09548
2405.00000   -0.09728
2405.50000   -0.09792
2406.00000   -0.09725
2406.50000   -0.09514
2407.00000   -0.09147
2407.50000   -0.08618
2408.00000   -0.07923
2408.50000   -0.07063
2409.00000   -0.06042
2409.50000   -0.04869
2410.00000   -0.03556
2410.50000   -0.02119
2411.00000   -0.00578
2411.50000    0.01047
2412.00000    0.02729
2412.50000    0.04443
2413.00000    0.06161
2413.50000    0.07854
2414.00000    0.09495
2414.50000    0.11055
2415.00000    0.12510
2415.50000    0.13835
2416.00000    0.15009
2416.50000    0.16015
2417.00000    0.16839
2417.50000    0.17471
2418.00000    0.17905
2418.50000    0.18138
2419.00000    0.18174
2419.50000    0.18016
2420.00000    0.17675
2420.50000    0.17161
2421.00000    0.16489
2421.50000    0.15675
2422.00000    0.14735
2422.50000    0.13688
2423.00000    0.12551
2423.50000    0.11344
2424.00000    0.10083
2424.50000    0.08787
2425.00000    0.07472
2425.50000    0.06155
2426.00000    0.04852
2426.50000    0.03577
2427.00000    0.02345
2427.50000    0.01169
2428.00000    0.00062
2428.50000   -0.00966
2429.00000   -0.01903
2429.50000   -0.02740
2430.00000   -0.03470
2430.50000   -0.04087
2431.00000   -0.04588
2431.50000   -0.04969
2432.00000   -0.05232
2432.50000   -0.05379
2433.00000   -0.05415
2433.50000   -0.05345
2434.00000   -0.05179
2434.50000   -0.04926
2435.00000   -0.04596
2435.50000   -0.04202
2436.00000   -0.03753
2436.50000   -0.03263
2437.00000   -0.02742
2437.50000   -0.02200
2438.00000   -0.01645
2438.50000   -0.01087
2439.00000   -0.00532
2439.50000    0.00016
2440.00000    0.00553
2440.50000    0.01074
2441.00000    0.01580
2441.50000    0.02070
2442.00000    0.02543
2442.50000    0.03002
2443.00000    0.03449
2443.50000    0.03887
2444.00000    0.04320
2444.50000    0.04753
2445.00000    0.05192
2445.50000    0.05643
2446.00000    0.06112
2446.50000    0.06607
2447.00000    0.07135
2447.50000    0.07704
2448.00000    0.08320
2448.50000    0.08988
2449.00000    0.09713
2449.50000    0.10498
2450.00000    0.11343
2450.50000    0.12246
2451.00000    0.13203
2451.50000    0.14207
2452.00000    0.15250
2452.50000    0.16320
2453.00000    0.17406
2453.50000    0.18493
2454.00000    0.19568
2454.50000    0.20617
2455.00000    0.21627
2455.50000    0.22585
2456.00000    0.23481
2456.50000    0.24308
2457.00000    0.25058
2457.50000    0.25726
2458.00000    0.26311
2458.50000    0.26812
2459.00000    0.27226
2459.50000    0.27555
2460.00000    0.27798
2460.50000    0.27954
2461.00000    0.28021
2461.50000    0.27993
2462.00000    0.27867
2462.50000    0.27632
2463.00000    0.27282
2463.50000    0.26805
2464.00000    0.26190
2464.50000    0.25428
2465.00000    0.24509
2465.50000    0.23427
2466.00000    0.22178
2466.50000    0.20762
2467.00000    0.19185
2467.50000    0.17456
2468.00000    0.15591
2468.50000    0.13613
2469.00000    0.11546
2469.50000    0.09422
2470.00000    0.07277
2470.50000    0.05149
2471.00000    0.03077
2471.50000    0.01103
2472.00000   -0.00733
2472.50000   -0.02394
2473.00000   -0.03843
2473.50000   -0.05051
2474.00000   -0.05990
2474.50000   -0.06641
2475.00000   -0.06990
2475.50000   -0.07028
2476.00000   -0.06756
2476.50000   -0.06177
2477.00000   -0.05304
2477.50000   -0.04153
2478.00000   -0.02747
2478.50000   -0.01110
2479.00000    0.00729
2479.50000    0.02737
2480.00000    0.04881
2480.50000    0.07128
2481.00000    0.09442
2481.50000    0.11791
2482.00000    0.14140
2482.50000    0.16460
2483.00000    0.18720
2483.50000    0.20895
2484.00000    0.22959
2484.50000    0.24893
2485.00000    0.26678
2485.50000    0.28298
2486.00000    0.29742
2486.50000    0.31001
2487.00000    0.32069
2487.50000    0.32942
2488.00000    0.33620
2488.50000    0.34104
2489.00000    0.34396
2489.50000    0.34503
2490.00000    0.34430
2490.50000    0.34186
2491.00000    0.33777
2491.50000    0.33214
2492.00000    0.32506
2492.50000    0.31662
2493.00000    0.30692
2493.50000    0.29606
2494.00000    0.28414
2494.50000    0.27128
2495.00000    0.25757
2495.50000    0.24314
2496.00000    0.22809
2496.50000    0.21256
2497.00000    0.19667
2497.50000    0.18057
2498.00000    0.16440
2498.50000    0.14833
2499.00000    0.13249
2499.50000    0.11707
2500.00000    0.10220
2500.50000    0.08803
2501.00000    0.07472
2501.50000    0.06238
2502.00000    0.05112
2502.50000    0.04102
2503.00000    0.03214
2503.50000    0.02450
2504.00000    0.01810
2504.50000    0.01290
2505.00000    0.00886
2505.50000    0.00587
2506.00000    0.00383
2506.50000    0.00262
2507.00000    0.00208
2507.50000    0.00206
2508.00000    0.00242
2508.50000    0.00300
2509.00000    0.00366
2509.50000    0.00427
2510.00000    0.00473
2510.50000    0.00492
2511.00000    0.00478
2511.50000    0.00426
2512.00000    0.00332
2512.50000    0.00196
2513.00000    0.00017
2513.50000   -0.00201
2514.00000   -0.00454
2514.50000   -0.00738
2515.00000   -0.01046
2515.50000   -0.01369
2516.00000   -0.01702
2516.50000   -0.02034
2517.00000   -0.02356
2517.50000   -0.02661
2518.00000   -0.02938
2518.50000   -0.03178
2519.00000   -0.03375
2519.50000   -0.03520
2520.00000   -0.03607
2520.50000   -0.03632
2521.00000   -0.03592
2521.50000   -0.03488
2522.00000   -0.03320
2522.50000   -0.03095
2523.00000   -0.02819
2523.50000   -0.02502
2524.00000   -0.02158
2524.50000   -0.01800
2525.00000   -0.01446
2525.50000   -0.01111
2526.00000   -0.00814
2526.50000   -0.00571
2527.00000   -0.00397
2527.50000   -0.00304
2528.00000   -0.00303
2528.50000   -0.00397
2529.00000   -0.00590
2529.50000   -0.00878
2530.00000   -0.01253
2530.50000   -0.01703
2531.00000   -0.02212
2531.50000   -0.02762
2532.00000   -0.03331
2532.50000   -0.03895
2533.00000   -0.04432
2533.50000   -0.04918
2534.00000   -0.05333
2534.50000   -0.05657
2535.00000   -0.05876
2535.50000   -0.05977
2536.00000   -0.05954
2536.50000   -0.05803
2537.00000   -0.05526
2537.50000   -0.05128
2538.00000   -0.04618
2538.50000   -0.04008
2539.00000   -0.03312
2539.50000   -0.02548
2540.00000   -0.01733
2540.50000   -0.00885
2541.00000   -0.00022
2541.50000    0.00838
2542.00000    0.01679
2542.50000    0.02485
2543.00000    0.03241
2543.50000    0.03936
2544.00000    0.04559
2544.50000    0.05100
2545.00000    0.05554
2545.50000    0.05913
2546.00000    0.06176
2546.50000    0.06340
2547.00000    0.06406
2547.50000    0.06376
2548.00000    0.06254
2548.50000    0.06046
2549.00000    0.05758
2549.50000    0.05400
2550.00000    0.04980
2550.50000    0.04509
2551.00000    0.03998
2551.50000    0.03457
2552.00000    0.02897
2552.50000    0.02325
2553.00000    0.01752
2553.50000    0.01184
2554.00000    0.00627
2554.50000    0.00085
2555.00000   -0.00438
2555.50000   -0.00940
2556.00000   -0.01418
2556.50000   -0.01872
2557.00000   -0.02298
2557.50000   -0.02695
2558.00000   -0.03058
2558.50000   -0.03384
2559.00000   -0.03665
2559.50000   -0.03895
2560.00000   -0.04066
2560.50000   -0.04168
2561.00000   -0.04194
2561.50000   -0.04134
2562.00000   -0.03981
2562.50000   -0.03731
2563.00000   -0.03381
2563.50000   -0.02931
2564.00000   -0.02386
2564.50000   -0.01753
2565.00000   -0.01045
2565.50000   -0.00275
2566.00000    0.00536
2566.50000    0.01368
2567.00000    0.02197
2567.50000    0.03000
2568.00000    0.03752
2568.50000    0.04431
2569.00000    0.05014
2569.50000    0.05483
2570.00000    0.05824
2570.50000    0.06023
2571.00000    0.06075
2571.50000    0.05976
2572.00000    0.05727
2572.50000    0.05333
2573.00000    0.04804
2573.50000    0.04151
2574.00000    0.03388
2574.50000    0.02532
2575.00000    0.01599
2575.50000    0.00610
2576.00000   -0.00419
2576.50000   -0.01469
2577.00000   -0.02521
2577.50000   -0.03558
2578.00000   -0.04564
2578.50000   -0.05524
2579.00000   -0.06422
2579.50000   -0.07245
2580.00000   -0.07981
2580.50000   -0.08619
2581.00000   -0.09149
2581.50000   -0.09561
2582.00000   -0.09849
2582.50000   -0.10008
2583.00000   -0.10034
2583.50000   -0.09925
2584.00000   -0.09683
2584.50000   -0.09310
2585.00000   -0.08813
2585.50000   -0.08199
2586.00000   -0.07479
2586.50000   -0.06666
2587.00000   -0.05776
2587.50000   -0.04827
2588.00000   -0.03836
2588.50000   -0.02825
2589.00000   -0.01814
2589.50000   -0.00824
2590.00000    0.00123
2590.50000    0.01009
2591.00000    0.01814
2591.50000    0.02522
2592.00000    0.03118
2592.50000    0.03591
2593.00000    0.03932
2593.50000    0.04137
2594.00000    0.04202
2594.50000    0.04131
2595.00000    0.03928
2595.50000    0.03603
2596.00000    0.03168
2596.50000    0.02637
2597.00000    0.02028
2597.50000    0.01360
2598.00000    0.00655
2598.50000   -0.00066
2599.00000   -0.00779
2599.50000   -0.01463
2600.00000   -0.02096
2600.50000   -0.02656
2601.00000   -0.03126
2601.50000   -0.03488
2602.00000   -0.03729
2602.50000   -0.03836
2603.00000   -0.03802
2603.50000   -0.03620
2604.00000   -0.03288
2604.50000   -0.02807
2605.00000   -0.02180
2605.50000   -0.01414
2606.00000   -0.00517
2606.50000    0.00499
2607.00000    0.01621
2607.50000    0.02832
2608.00000    0.04115
2608.50000    0.05453
2609.00000    0.06824
2609.50000    0.08208
2610.00000    0.09583
2610.50000    0.10928
2611.00000    0.12220
2611.50000    0.13437
2612.00000    0.14558
2612.50000    0.15564
2613.00000    0.16434
2613.50000    0.17152
2614.00000    0.17703
2614.50000    0.18075
2615.00000    0.18257
2615.50000    0.18243
2616.00000    0.18031
2616.50000    0.17621
2617.00000    0.17019
2617.50000    0.16232
2618.00000    0.15274
2618.50000    0.14161
2619.00000    0.12914
2619.50000    0.11554
2620.00000    0.10108
2620.50000    0.08603
2621.00000    0.07069
2621.50000    0.05536
2622.00000    0.04032
2622.50000    0.02588
2623.00000    0.01231
2623.50000   -0.00015
2624.00000   -0.01126
2624.50000   -0.02085
2625.00000   -0.02875
2625.50000   -0.03486
2626.00000   -0.03911
2626.50000   -0.04149
2627.00000   -0.04201
2627.50000   -0.04073
2628.00000   -0.03775
2628.50000   -0.03320
2629.00000   -0.02721
2629.50000   -0.01997
2630.00000   -0.01164
2630.50000   -0.00238
2631.00000    0.00762
2631.50000    0.01822
2632.00000    0.02930
2632.50000    0.04075
2633.00000    0.05250
2633.50000    0.06453
2634.00000    0.07682
2634.50000    0.08943
2635.00000    0.10240
2635.50000    0.11586
2636.00000    0.12990
2636.50000    0.14467
2637.00000    0.16031
2637.50000    0.17697
2638.00000    0.19479
2638.50000    0.21391
2639.00000    0.23442
2639.50000    0.25642
2640.00000    0.27997
2640.50000    0.30510
2641.00000    0.33184
2641.50000    0.36016
2642.00000    0.39004
2642.50000    0.42147
2643.00000    0.45439
2643.50000    0.48881
2644.00000    0.52470
2644.50000    0.56211
2645.00000    0.60109
2645.50000    0.64176
2646.00000    0.68425
2646.50000    0.72878
2647.00000    0.77558
2647.50000    0.82495
2648.00000    0.87721
2648.50000    0.93272
2649.00000    0.99186
2649.50000    1.05503
2650.00000    1.12260
2650.50000    1.19498
2651.00000    1.27252
2651.50000    1.35558
2652.00000    1.44446
2652.50000    1.53944
2653.00000    1.64075
2653.50000    1.74859
2654.00000    1.86313
2654.50000    1.98447
2655.00000    2.11271
2655.50000    2.24789
2656.00000    2.39004
2656.50000    2.53914
2657.00000    2.69516
2657.50000    2.85805
2658.00000    3.02773
2658.50000    3.20408
2659.00000    3.38697
2659.50000    3.57624
2660.00000    3.77169
2660.50000    3.97310
2661.00000    4.18019
2661.50000    4.39267
2662.00000    4.61018
2662.50000    4.83234
2663.00000    5.05871
2663.50000    5.28881
2664.00000    5.52211
2664.50000    5.75802
2665.00000    5.99594
2665.50000    6.23516
2666.00000    6.47497
2666.50000    6.71458
2667.00000    6.95316
2667.50000    7.18982
2668.00000    7.42361
2668.50000    7.65356
2669.00000    7.87863
2669.50000    8.09776
2670.00000    8.30985
2670.50000    8.51379
2671.00000    8.70849
2671.50000    8.89284
2672.00000    9.06579
2672.50000    9.22634
2673.00000    9.37354
2673.50000    9.50657
2674.00000    9.62467
2674.50000    9.72724
2675.00000    9.81380
2675.50000    9.88403
2676.00000    9.93772
2676.50000    9.97485
2677.00000    9.99553
2677.50000   10.00000
2678.00000    9.98862
2678.50000    9.96188
2679.00000    9.92033
2679.50000    9.86462
2680.00000    9.79543
2680.50000    9.71349
2681.00000    9.61954
2681.50000    9.51434
2682.00000    9.39862
2682.50000    9.27311
2683.00000    9.13851
2683.50000    8.99550
2684.00000    8.84471
2684.50000    8.68677
2685.00000    8.52227
2685.50000    8.35179
2686.00000    8.17587
2686.50000    7.99506
2687.00000    7.80989
2687.50000    7.62090
2688.00000    7.42862
2688.50000    7.23357
2689.00000    7.03629
2689.50000    6.83731
2690.00000    6.63718
2690.50000    6.43642
2691.00000    6.23555
2691.50000    6.03511
2692.00000    5.83559
2692.50000    5.63749
2693.00000    5.44126
2693.50000    5.24734
2694.00000    5.05615
2694.50000    4.86805
2695.00000    4.68337
2695.50000    4.50241
2696.00000    4.32541
2696.50000    4.15258
2697.00000    3.98409
2697.50000    3.82006
2698.00000    3.66056
2698.50000    3.50565
2699.00000    3.35534
2699.50000    3.20961
2700.00000    3.06844
2700.50000    2.93177
2701.00000    2.79954
2701.50000    2.67169
2702.00000    2.54816
2702.50000    2.42887
2703.00000    2.31379
2703.50000    2.20287
2704.00000    2.09608
2704.50000    1.99340
2705.00000    1.89484
2705.50000    1.80040
2706.00000    1.71008
2706.50000    1.62389
2707.00000    1.54186
2707.50000    1.46397
2708.00000    1.39021
2708.50000    1.32057
2709.00000    1.25498
2709.50000    1.19338
2710.00000    1.13566
2710.50000    1.08170
2711.00000    1.03135
2711.50000    0.98441
2712.00000    0.94069
2712.50000    0.89997
2713.00000    0.86201
2713.50000    0.82656
2714.00000    0.79337
2714.50000    0.76220
2715.00000    0.73282
2715.50000    0.70501
2716.00000    0.67858
2716.50000    0.65336
2717.00000    0.62922
2717.50000    0.60603
2718.00000    0.58374
2718.50000    0.56230
2719.00000    0.54168
2719.50000    0.52190
2720.00000    0.50296
2720.50000    0.48491
2721.00000    0.46778
2721.50000    0.45160
2722.00000    0.43640
2722.50000    0.42217
2723.00000    0.40892
2723.50000    0.39660
2724.00000    0.38516
2724.50000    0.37450
2725.00000    0.36452
2725.50000    0.35509
2726.00000    0.34606
2726.50000    0.33727
2727.00000    0.32857
2727.50000    0.31980
2728.00000    0.31082
2728.50000    0.30150
2729.00000    0.29173
2729.50000    0.28145
2730.00000    0.27062
2730.50000    0.25921
2731.00000    0.24726
2731.50000    0.23482
2732.00000    0.22197
2732.50000    0.20882
2733.00000    0.19550
2733.50000    0.18214
2734.00000    0.16888
2734.50000    0.15586
2735.00000    0.14320
2735.50000    0.13103
2736.00000    0.11942
2736.50000    0.10845
2737.00000    0.09817
2737.50000    0.08857
2738.00000    0.07966
2738.50000    0.07137
2739.00000    0.06366
2739.50000    0.05643
2740.00000    0.04958
2740.50000    0.04300
2741.00000    0.03656
2741.50000    0.03016
2742.00000    0.02369
2742.50000    0.01703
2743.00000    0.01011
2743.50000    0.00287
2744.00000   -0.00475
2744.50000   -0.01275
2745.00000   -0.02113
2745.50000   -0.02985
2746.00000   -0.03884
2746.50000   -0.04802
2747.00000   -0.05728
2747.50000   -0.06649
2748.00000   -0.07551
2748.50000   -0.08419
2749.00000   -0.09237
2749.50000   -0.09989
2750.00000   -0.10662
2750.50000   -0.11242
2751.00000   -0.11717
2751.50000   -0.12078
2752.00000   -0.12318
2752.50000   -0.12433
2753.00000   -0.12423
2753.50000   -0.12288
2754.00000   -0.12032
2754.50000   -0.11664
2755.00000   -0.11192
2755.50000   -0.10625
2756.00000   -0.09976
2756.50000   -0.09258
2757.00000   -0.08481
2757.50000   -0.07658
2758.00000   -0.06799
2758.50000   -0.05916
2759.00000   -0.05016
2759.50000   -0.04108
2760.00000   -0.03199
2760.50000   -0.02295
2761.00000   -0.01403
2761.50000   -0.00529
2762.00000    0.00318
2762.50000    0.01132
2763.00000    0.01901
2763.50000    0.02616
2764.00000    0.03264
2764.50000    0.03832
2765.00000    0.04308
2765.50000    0.04677
2766.00000    0.04930
2766.50000    0.05057
2767.00000    0.05052
2767.50000    0.04913
2768.00000    0.04642
2768.50000    0.04247
2769.00000    0.03742
2769.50000    0.03145
2770.00000    0.02479
2770.50000    0.01772
2771.00000    0.01053
2771.50000    0.00354
2772.00000   -0.00293
2772.50000   -0.00857
2773.00000   -0.01312
2773.50000   -0.01635
2774.00000   -0.01810
2774.50000   -0.01825
2775.00000   -0.01679
2775.50000   -0.01376
2776.00000   -0.00927
2776.50000   -0.00350
2777.00000    0.00332
2777.50000    0.01092
2778.00000    0.01899
2778.50000    0.02723
2779.00000    0.03535
2779.50000    0.04306
2780.00000    0.05012
2780.50000    0.05633
2781.00000    0.06156
2781.50000    0.06571
2782.00000    0.06876
2782.50000    0.07074
2783.00000    0.07172
2783.50000    0.07184
2784.00000    0.07124
2784.50000    0.07012
2785.00000    0.06866
2785.50000    0.06706
2786.00000    0.06551
2786.50000    0.06419
2787.00000    0.06325
2787.50000    0.06281
2788.00000    0.06297
2788.50000    0.06377
2789.00000    0.06524
2789.50000    0.06736
2790.00000    0.07007
2790.50000    0.07327
2791.00000    0.07684
2791.50000    0.08063
2792.00000    0.08446
2792.50000    0.08812
2793.00000    0.09142
2793.50000    0.09414
2794.00000    0.09605
2794.50000    0.09695
2795.00000    0.09665
2795.50000    0.09498
2796.00000    0.09181
2796.50000    0.08702
2797.00000    0.08057
2797.50000    0.07243
2798.00000    0.06265
2798.50000    0.05130
2799.00000    0.03854
2799.50000    0.02453
2800.00000    0.00951
2800.50000   -0.00625
2801.00000   -0.02246
2801.50000   -0.03878
2802.00000   -0.05488
2802.50000   -0.07040
2803.00000   -0.08500
2803.50000   -0.09833
2804.00000   -0.11008
2804.50000   -0.11995
2805.00000   -0.12770
2805.50000   -0.13309
2806.00000   -0.13598
2806.50000   -0.13623
2807.00000   -0.13381
2807.50000   -0.12870
2808.00000   -0.12097
2808.50000   -0.11072
2809.00000   -0.09812
2809.50000   -0.08338
2810.00000   -0.06676
2810.50000   -0.04855
2811.00000   -0.02907
2811.50000   -0.00864
2812.00000    0.01238
2812.50000    0.03366
2813.00000    0.05486
2813.50000    0.07566
2814.00000    0.09578
2814.50000    0.11495
2815.00000    0.13295
2815.50000    0.14958
2816.00000    0.16469
2816.50000    0.17816
2817.00000    0.18991
2817.50000    0.19989
2818.00000    0.20808
2818.50000    0.21449
2819.00000    0.21913
2819.50000    0.22204
2820.00000    0.22329
2820.50000    0.22292
2821.00000    0.22101
2821.50000    0.21763
2822.00000    0.21285
2822.50000    0.20674
2823.00000    0.19939
2823.50000    0.19086
2824.00000    0.18122
2824.50000    0.17054
2825.00000    0.15889
2825.50000    0.14634
2826.00000    0.13295
2826.50000    0.11880
2827.00000    0.10395
2827.50000    0.08850
2828.00000    0.07253
2828.50000    0.05614
2829.00000    0.03945
2829.50000    0.02261
2830.00000    0.00576
2830.50000   -0.01091
2831.00000   -0.02720
2831.50000   -0.04291
2832.00000   -0.05780
2832.50000   -0.07164
2833.00000   -0.08420
2833.50000   -0.09526
2834.00000   -0.10463
2834.50000   -0.11213
2835.00000   -0.11765
2835.50000   -0.12111
2836.00000   -0.12249
2836.50000   -0.12182
2837.00000   -0.11921
2837.50000   -0.11482
2838.00000   -0.10885
2838.50000   -0.10155
2839.00000   -0.09321
2839.50000   -0.08413
2840.00000   -0.07461
2840.50000   -0.06496
2841.00000   -0.05546
2841.50000   -0.04634
2842.00000   -0.03781
2842.50000   -0.03001
2843.00000   -0.02305
2843.50000   -0.01697
2844.00000   -0.01176
2844.50000   -0.00738
2845.00000   -0.00374
2845.50000   -0.00073
2846.00000    0.00179
2846.50000    0.00396
2847.00000    0.00592
2847.50000    0.00781
2848.00000    0.00975
2848.50000    0.01184
2849.00000    0.01418
2849.50000    0.01684
2850.00000    0.01985
2850.50000    0.02327
2851.00000    0.02709
2851.50000    0.03132
2852.00000    0.03596
2852.50000    0.04099
2853.00000    0.04638
2853.50000    0.05211
2854.00000    0.05813
2854.50000    0.06441
2855.00000    0.07090
2855.50000    0.07756
2856.00000    0.08434
2856.50000    0.09119
2857.00000    0.09806
2857.50000    0.10491
2858.00000    0.11170
2858.50000    0.11839
2859.00000    0.12496
2859.50000    0.13138
2860.00000    0.13766
2860.50000    0.14378
2861.00000    0.14976
2861.50000    0.15561
2862.00000    0.16134
2862.50000    0.16698
2863.00000    0.17253
2863.50000    0.17800
2864.00000    0.18342
2864.50000    0.18877
2865.00000    0.19406
2865.50000    0.19928
2866.00000    0.20441
2866.50000    0.20945
2867.00000    0.21439
2867.50000    0.21923
2868.00000    0.22396
2868.50000    0.22860
2869.00000    0.23317
2869.50000    0.23767
2870.00000    0.24215
2870.50000    0.24661
2871.00000    0.25109
2871.50000    0.25559
2872.00000    0.26011
2872.50000    0.26463
2873.00000    0.26910
2873.50000    0.27347
2874.00000    0.27764
2874.50000    0.28150
2875.00000    0.28491
2875.50000    0.28774
2876.00000    0.28983
2876.50000    0.29101
2877.00000    0.29115
2877.50000    0.29011
2878.00000    0.28776
2878.50000    0.28403
2879.00000    0.27886
2879.50000    0.27225
2880.00000    0.26420
2880.50000    0.25479
2881.00000    0.24411
2881.50000    0.23229
2882.00000    0.21948
2882.50000    0.20587
2883.00000    0.19163
2883.50000    0.17697
2884.00000    0.16208
2884.50000    0.14714
2885.00000    0.13234
2885.50000    0.11782
2886.00000    0.10373
2886.50000    0.09020
2887.00000    0.07730
2887.50000    0.06511
2888.00000    0.05369
2888.50000    0.04306
2889.00000    0.03322
2889.50000    0.02417
2890.00000    0.01588
2890.50000    0.00832
2891.00000    0.00144
2891.50000   -0.00481
2892.00000   -0.01048
2892.50000   -0.01565
2893.00000   -0.02036
2893.50000   -0.02467
2894.00000   -0.02863
2894.50000   -0.03230
2895.00000   -0.03572
2895.50000   -0.03894
2896.00000   -0.04198
2896.50000   -0.04487
2897.00000   -0.04766
2897.50000   -0.05036
2898.00000   -0.05299
2898.50000   -0.05558
2899.00000   -0.05815
2899.50000   -0.06071
