1200.50000    0.05910
1201.00000    0.05751
1201.50000    0.05587
1202.00000    0.05413
1202.50000    0.05225
1203.00000    0.05016
1203.50000    0.04782
1204.00000    0.04517
1204.50000    0.04218
1205.00000    0.03880
1205.50000    0.03499
1206.00000    0.03076
1206.50000    0.02607
1207.00000    0.02093
1207.50000    0.01535
1208.00000    0.00935
1208.50000    0.00297
1209.00000   -0.00377
1209.50000   -0.01081
1210.00000   -0.01808
1210.50000   -0.02552
1211.00000   -0.03305
1211.50000   -0.04059
1212.00000   -0.04803
1212.50000   -0.05529
1213.00000   -0.06226
1213.50000   -0.06883
1214.00000   -0.07490
1214.50000   -0.08036
1215.00000   -0.08511
1215.50000   -0.08906
1216.00000   -0.09211
1216.50000   -0.09419
1217.00000   -0.09525
1217.50000   -0.09523
1218.00000   -0.09411
1218.50000   -0.09188
1219.00000   -0.08856
1219.50000   -0.08418
1220.00000   -0.07879
1220.50000   -0.07248
1221.00000   -0.06534
1221.50000   -0.05747
1222.00000   -0.04901
1222.50000   -0.04009
1223.00000   -0.03084
1223.50000   -0.02141
1224.00000   -0.01194
1224.50000   -0.00257
1225.00000    0.00657
1225.50000    0.01537
1226.00000    0.02371
1226.50000    0.03151
1227.00000    0.03869
1227.50000    0.04520
1228.00000    0.05098
1228.50000    0.05603
1229.00000    0.06031
1229.50000    0.06385
1230.00000    0.06664
1230.50000    0.06871
1231.00000    0.07008
1231.50000    0.07079
1232.00000    0.07087
1232.50000    0.07036
1233.00000    0.06930
1233.50000    0.06771
1234.00000    0.06565
1234.50000    0.06315
1235.00000    0.06024
1235.50000    0.05697
1236.00000    0.05338
1236.50000    0.04950
1237.00000    0.04540
1237.50000    0.04113
1238.00000    0.03674
1238.50000    0.03229
1239.00000    0.02786
1239.50000    0.02350
1240.00000    0.01931
1240.50000    0.01533
1241.00000    0.01166
1241.50000    0.00834
1242.00000    0.00546
1242.50000    0.00304
1243.00000    0.00114
1243.50000   -0.00021
1244.00000   -0.00101
1244.50000   -0.00126
1245.00000   -0.00096
1245.50000   -0.00017
1246.00000    0.00108
1246.50000    0.00271
1247.00000    0.00465
1247.50000    0.00682
1248.00000    0.00913
1248.50000    0.01147
1249.00000    0.01374
1249.50000    0.01586
1250.00000    0.01772
1250.50000    0.01925
1251.00000    0.02037
1251.50000    0.02102
1252.00000    0.02116
1252.50000    0.02075
1253.00000    0.01978
1253.50000    0.01825
1254.00000    0.01617
1254.50000    0.01358
1255.00000    0.01053
1255.50000    0.00705
1256.00000    0.00323
1256.50000   -0.00088
1257.00000   -0.00520
1257.50000   -0.00964
1258.00000   -0.01413
1258.50000   -0.01858
1259.00000   -0.02291
1259.50000   -0.02706
1260.00000   -0.03093
1260.50000   -0.03447
1261.00000   -0.03760
1261.50000   -0.04026
1262.00000   -0.04241
1262.50000   -0.04398
1263.00000   -0.04494
1263.50000   -0.04526
1264.00000   -0.04490
1264.50000   -0.04385
1265.00000   -0.04210
1265.50000   -0.03966
1266.00000   -0.03654
1266.50000   -0.03277
1267.00000   -0.02840
1267.50000   -0.02349
1268.00000   -0.01811
1268.50000   -0.01235
1269.00000   -0.00631
1269.50000   -0.00011
1270.00000    0.00612
1270.50000    0.01226
1271.00000    0.01815
1271.50000    0.02367
1272.00000    0.02866
1272.50000    0.03301
1273.00000    0.03658
1273.50000    0.03928
1274.00000    0.04101
1274.50000    0.04170
1275.00000    0.04131
1275.50000    0.03983
1276.00000    0.03725
1276.50000    0.03362
1277.00000    0.02900
1277.50000    0.02347
1278.00000    0.01716
1278.50000    0.01019
1279.00000    0.00272
1279.50000   -0.00510
1280.00000   -0.01310
1280.50000   -0.02111
1281.00000   -0.02895
1281.50000   -0.03646
1282.00000   -0.04349
1282.50000   -0.04990
1283.00000   -0.05556
1283.50000   -0.06037
1284.00000   -0.06423
1284.50000   -0.06709
1285.00000   -0.06890
1285.50000   -0.06965
1286.00000   -0.06933
1286.50000   -0.06796
1287.00000   -0.06560
1287.50000   -0.06228
1288.00000   -0.05810
1288.50000   -0.05313
1289.00000   -0.04746
1289.50000   -0.04121
1290.00000   -0.03449
1290.50000   -0.02741
1291.00000   -0.02009
1291.50000   -0.01265
1292.00000   -0.00521
1292.50000    0.00211
1293.00000    0.00921
1293.50000    0.01598
1294.00000    0.02231
1294.50000    0.02813
1295.00000    0.03334
1295.50000    0.03789
1296.00000    0.04171
1296.50000    0.04476
1297.00000    0.04700
1297.50000    0.04843
1298.00000    0.04903
1298.50000    0.04881
1299.00000    0.04778
1299.50000    0.04599
1300.00000    0.04347
1300.50000    0.04027
1301.00000    0.03646
1301.50000    0.03209
1302.00000    0.02725
1302.50000    0.02202
1303.00000    0.01647
1303.50000    0.01070
1304.00000    0.00479
1304.50000   -0.00117
1305.00000   -0.00709
1305.50000   -0.01289
1306.00000   -0.01847
1306.50000   -0.02376
1307.00000   -0.02867
1307.50000   -0.03314
1308.00000   -0.03709
1308.50000   -0.04047
1309.00000   -0.04322
1309.50000   -0.04529
1310.00000   -0.04667
1310.50000   -0.04731
1311.00000   -0.04723
1311.50000   -0.04642
1312.00000   -0.04491
1312.50000   -0.04273
1313.00000   -0.03992
1313.50000   -0.03656
1314.00000   -0.03272
1314.50000   -0.02848
1315.00000   -0.02393
1315.50000   -0.01918
1316.00000   -0.01434
1316.50000   -0.00949
1317.00000   -0.00475
1317.50000   -0.00021
1318.00000    0.00404
1318.50000    0.00794
1319.00000    0.01142
1319.50000    0.01444
1320.00000    0.01697
1320.50000    0.01901
1321.00000    0.02057
1321.50000    0.02170
1322.00000    0.02243
1322.50000    0.02285
1323.00000    0.02304
1323.50000    0.02309
1324.00000    0.02313
1324.50000    0.02328
1325.00000    0.02365
1325.50000    0.02439
1326.00000    0.02561
1326.50000    0.02745
1327.00000    0.03003
1327.50000    0.03346
1328.00000    0.03787
1328.50000    0.04333
1329.00000    0.04994
1329.50000    0.05777
1330.00000    0.06687
1330.50000    0.07728
1331.00000    0.08903
1331.50000    0.10211
1332.00000    0.11651
1332.50000    0.13219
1333.00000    0.14911
1333.50000    0.16718
1334.00000    0.18631
1334.50000    0.20639
1335.00000    0.22728
1335.50000    0.24883
1336.00000    0.27087
1336.50000    0.29322
1337.00000    0.31569
1337.50000    0.33806
1338.00000    0.36014
1338.50000    0.38171
1339.00000    0.40255
1339.50000    0.42247
1340.00000    0.44126
1340.50000    0.45875
1341.00000    0.47475
1341.50000    0.48914
1342.00000    0.50178
1342.50000    0.51257
1343.00000    0.52143
1343.50000    0.52833
1344.00000    0.53324
1344.50000    0.53615
1345.00000    0.53711
1345.50000    0.53617
1346.00000    0.53339
1346.50000    0.52888
1347.00000    0.52273
1347.50000    0.51508
1348.00000    0.50603
1348.50000    0.49573
1349.00000    0.48431
1349.50000    0.47189
1350.00000    0.45862
1350.50000    0.44461
1351.00000    0.42998
1351.50000    0.41483
1352.00000    0.39928
1352.50000    0.38340
1353.00000    0.36728
1353.50000    0.35101
1354.00000    0.33463
1354.50000    0.31822
1355.00000    0.30182
1355.50000    0.28548
1356.00000    0.26925
1356.50000    0.25316
1357.00000    0.23724
1357.50000    0.22155
1358.00000    0.20609
1358.50000    0.19091
1359.00000    0.17604
1359.50000    0.16149
1360.00000    0.14731
1360.50000    0.13351
1361.00000    0.12013
1361.50000    0.10718
1362.00000    0.09471
1362.50000    0.08274
1363.00000    0.07128
1363.50000    0.06038
1364.00000    0.05005
1364.50000    0.04032
1365.00000    0.03122
1365.50000    0.02275
1366.00000    0.01495
1366.50000    0.00783
1367.00000    0.00140
1367.50000   -0.00434
1368.00000   -0.00937
1368.50000   -0.01371
1369.00000   -0.01735
1369.50000   -0.02032
1370.00000   -0.02264
1370.50000   -0.02432
1371.00000   -0.02540
1371.50000   -0.02592
1372.00000   -0.02591
1372.50000   -0.02543
1373.00000   -0.02453
1373.50000   -0.02326
1374.00000   -0.02167
1374.50000   -0.01982
1375.00000   -0.01777
1375.50000   -0.01558
1376.00000   -0.01330
1376.50000   -0.01100
1377.00000   -0.00872
1377.50000   -0.00651
1378.00000   -0.00443
1378.50000   -0.00252
1379.00000   -0.00082
1379.50000    0.00064
1380.00000    0.00182
1380.50000    0.00270
1381.00000    0.00326
1381.50000    0.00351
1382.00000    0.00343
1382.50000    0.00304
1383.00000    0.00236
1383.50000    0.00141
1384.00000    0.00026
1384.50000   -0.00107
1385.00000   -0.00250
1385.50000   -0.00398
1386.00000   -0.00542
1386.50000   -0.00675
1387.00000   -0.00791
1387.50000   -0.00880
1388.00000   -0.00937
1388.50000   -0.00956
1389.00000   -0.00931
1389.50000   -0.00860
1390.00000   -0.00739
1390.50000   -0.00568
1391.00000   -0.00349
1391.50000   -0.00085
1392.00000    0.00219
1392.50000    0.00557
1393.00000    0.00922
1393.50000    0.01303
1394.00000    0.01693
1394.50000    0.02080
1395.00000    0.02454
1395.50000    0.02805
1396.00000    0.03124
1396.50000    0.03403
1397.00000    0.03634
1397.50000    0.03811
1398.00000    0.03929
1398.50000    0.03985
1399.00000    0.03976
1399.50000    0.03903
1400.00000    0.03764
1400.50000    0.03563
1401.00000    0.03301
1401.50000    0.02982
1402.00000    0.02608
1402.50000    0.02184
1403.00000    0.01714
1403.50000    0.01203
1404.00000    0.00655
1404.50000    0.00075
1405.00000   -0.00530
1405.50000   -0.01156
1406.00000   -0.01795
1406.50000   -0.02441
1407.00000   -0.03085
1407.50000   -0.03720
1408.00000   -0.04334
1408.50000   -0.04919
1409.00000   -0.05463
1409.50000   -0.05956
1410.00000   -0.06386
1410.50000   -0.06743
1411.00000   -0.07015
1411.50000   -0.07195
1412.00000   -0.07274
1412.50000   -0.07246
1413.00000   -0.07106
1413.50000   -0.06854
1414.00000   -0.06490
1414.50000   -0.06018
1415.00000   -0.05444
1415.50000   -0.04777
1416.00000   -0.04026
1416.50000   -0.03207
1417.00000   -0.02333
1417.50000   -0.01420
1418.00000   -0.00485
1418.50000    0.00455
1419.00000    0.01382
1419.50000    0.02281
1420.00000    0.03136
1420.50000    0.03932
1421.00000    0.04658
1421.50000    0.05303
1422.00000    0.05858
1422.50000    0.06318
1423.00000    0.06679
1423.50000    0.06939
1424.00000    0.07097
1424.50000    0.07157
1425.00000    0.07121
1425.50000    0.06995
1426.00000    0.06785
1426.50000    0.06498
1427.00000    0.06143
1427.50000    0.05729
1428.00000    0.05264
1428.50000    0.04758
1429.00000    0.04221
1429.50000    0.03663
1430.00000    0.03093
1430.50000    0.02520
1431.00000    0.01953
1431.50000    0.01400
1432.00000    0.00868
1432.50000    0.00365
1433.00000   -0.00104
1433.50000   -0.00536
1434.00000   -0.00925
1434.50000   -0.01270
1435.00000   -0.01570
1435.50000   -0.01824
1436.00000   -0.02034
1436.50000   -0.02201
1437.00000   -0.02328
1437.50000   -0.02420
1438.00000   -0.02480
1438.50000   -0.02514
1439.00000   -0.02525
1439.50000   -0.02521
1440.00000   -0.02505
1440.50000   -0.02482
1441.00000   -0.02457
1441.50000   -0.02434
1442.00000   -0.02416
1442.50000   -0.02407
1443.00000   -0.02407
1443.50000   -0.02418
1444.00000   -0.02443
1444.50000   -0.02480
1445.00000   -0.02529
1445.50000   -0.02591
1446.00000   -0.02663
1446.50000   -0.02743
1447.00000   -0.02831
1447.50000   -0.02922
1448.00000   -0.03013
1448.50000   -0.03101
1449.00000   -0.03182
1449.50000   -0.03250
1450.00000   -0.03301
1450.50000   -0.03328
1451.00000   -0.03325
1451.50000   -0.03286
1452.00000   -0.03204
1452.50000   -0.03073
1453.00000   -0.02885
1453.50000   -0.02635
1454.00000   -0.02318
1454.50000   -0.01929
1455.00000   -0.01467
1455.50000   -0.00929
1456.00000   -0.00317
1456.50000    0.00368
1457.00000    0.01120
1457.50000    0.01934
1458.00000    0.02799
1458.50000    0.03707
1459.00000    0.04644
1459.50000    0.05598
1460.00000    0.06553
1460.50000    0.07494
1461.00000    0.08406
1461.50000    0.09274
1462.00000    0.10082
1462.50000    0.10818
1463.00000    0.11469
1463.50000    0.12026
1464.00000    0.12480
1464.50000    0.12824
1465.00000    0.13057
1465.50000    0.13175
1466.00000    0.13180
1466.50000    0.13074
1467.00000    0.12862
1467.50000    0.12550
1468.00000    0.12146
1468.50000    0.11656
1469.00000    0.11091
1469.50000    0.10459
1470.00000    0.09769
1470.50000    0.09030
1471.00000    0.08252
1471.50000    0.07441
1472.00000    0.06606
1472.50000    0.05753
1473.00000    0.04888
1473.50000    0.04016
1474.00000    0.03144
1474.50000    0.02275
1475.00000    0.01414
1475.50000    0.00564
1476.00000   -0.00269
1476.50000   -0.01082
1477.00000   -0.01870
1477.50000   -0.02629
1478.00000   -0.03355
1478.50000   -0.04043
1479.00000   -0.04688
1479.50000   -0.05286
1480.00000   -0.05830
1480.50000   -0.06318
1481.00000   -0.06743
1481.50000   -0.07101
1482.00000   -0.07390
1482.50000   -0.07604
1483.00000   -0.07741
1483.50000   -0.07798
1484.00000   -0.07774
1484.50000   -0.07668
1485.00000   -0.07480
1485.50000   -0.07210
1486.00000   -0.06860
1486.50000   -0.06434
1487.00000   -0.05934
1487.50000   -0.05366
1488.00000   -0.04736
1488.50000   -0.04050
1489.00000   -0.03317
1489.50000   -0.02546
1490.00000   -0.01747
1490.50000   -0.00930
1491.00000   -0.00105
1491.50000    0.00715
1492.00000    0.01519
1492.50000    0.02295
1493.00000    0.03034
1493.50000    0.03724
1494.00000    0.04357
1494.50000    0.04925
1495.00000    0.05420
1495.50000    0.05839
1496.00000    0.06177
1496.50000    0.06434
1497.00000    0.06609
1497.50000    0.06706
1498.00000    0.06727
1498.50000    0.06679
1499.00000    0.06567
1499.50000    0.06400
1500.00000    0.06186
1500.50000    0.05935
1501.00000    0.05654
1501.50000    0.05353
1502.00000    0.05041
1502.50000    0.04724
1503.00000    0.04411
1503.50000    0.04106
1504.00000    0.03815
1504.50000    0.03540
1505.00000    0.03283
1505.50000    0.03046
1506.00000    0.02829
1506.50000    0.02630
1507.00000    0.02447
1507.50000    0.02279
1508.00000    0.02122
1508.50000    0.01972
1509.00000    0.01827
1509.50000    0.01683
1510.00000    0.01537
1510.50000    0.01385
1511.00000    0.01226
1511.50000    0.01056
1512.00000    0.00873
1512.50000    0.00678
1513.00000    0.00469
1513.50000    0.00246
1514.00000    0.00009
1514.50000   -0.00239
1515.00000   -0.00497
1515.50000   -0.00763
1516.00000   -0.01032
1516.50000   -0.01301
1517.00000   -0.01565
1517.50000   -0.01819
1518.00000   -0.02057
1518.50000   -0.02273
1519.00000   -0.02462
1519.50000   -0.02617
1520.00000   -0.02733
1520.50000   -0.02804
1521.00000   -0.02826
1521.50000   -0.02796
1522.00000   -0.02711
1522.50000   -0.02572
1523.00000   -0.02377
1523.50000   -0.02132
1524.00000   -0.01839
1524.50000   -0.01505
1525.00000   -0.01138
1525.50000   -0.00747
1526.00000   -0.00343
1526.50000    0.00062
1527.00000    0.00458
1527.50000    0.00832
1528.00000    0.01171
1528.50000    0.01465
1529.00000    0.01703
1529.50000    0.01877
1530.00000    0.01980
1530.50000    0.02007
1531.00000    0.01955
1531.50000    0.01824
1532.00000    0.01616
1532.50000    0.01337
1533.00000    0.00993
1533.50000    0.00594
1534.00000    0.00150
1534.50000   -0.00327
1535.00000   -0.00821
1535.50000   -0.01320
1536.00000   -0.01810
1536.50000   -0.02275
1537.00000   -0.02703
1537.50000   -0.03082
1538.00000   -0.03401
1538.50000   -0.03652
1539.00000   -0.03827
1539.50000   -0.03922
1540.00000   -0.03935
1540.50000   -0.03868
1541.00000   -0.03722
1541.50000   -0.03502
1542.00000   -0.03218
1542.50000   -0.02878
1543.00000   -0.02493
1543.50000   -0.02076
1544.00000   -0.01639
1544.50000   -0.01198
1545.00000   -0.00765
1545.50000   -0.00353
1546.00000    0.00024
1546.50000    0.00357
1547.00000    0.00635
1547.50000    0.00852
1548.00000    0.01003
1548.50000    0.01086
1549.00000    0.01100
1549.50000    0.01048
1550.00000    0.00936
1550.50000    0.00771
1551.00000    0.00563
1551.50000    0.00322
1552.00000    0.00063
1552.50000   -0.00202
1553.00000   -0.00457
1553.50000   -0.00688
1554.00000   -0.00879
1554.50000   -0.01016
1555.00000   -0.01086
1555.50000   -0.01075
1556.00000   -0.00972
1556.50000   -0.00767
1557.00000   -0.00452
1557.50000   -0.00017
1558.00000    0.00542
1558.50000    0.01232
1559.00000    0.02056
1559.50000    0.03019
1560.00000    0.04123
1560.50000    0.05372
1561.00000    0.06768
1561.50000    0.08315
1562.00000    0.10016
1562.50000    0.11874
1563.00000    0.13893
1563.50000    0.16079
1564.00000    0.18437
1564.50000    0.20973
1565.00000    0.23695
1565.50000    0.26610
1566.00000    0.29726
1566.50000    0.33054
1567.00000    0.36603
1567.50000    0.40384
1568.00000    0.44409
1568.50000    0.48690
1569.00000    0.53240
1569.50000    0.58072
1570.00000    0.63200
1570.50000    0.68638
1571.00000    0.74399
1571.50000    0.80498
1572.00000    0.86947
1572.50000    0.93758
1573.00000    1.00939
1573.50000    1.08498
1574.00000    1.16440
1574.50000    1.24765
1575.00000    1.33470
1575.50000    1.42545
1576.00000    1.51978
1576.50000    1.61747
1577.00000    1.71825
1577.50000    1.82177
1578.00000    1.92763
1578.50000    2.03533
1579.00000    2.14430
1579.50000    2.25390
1580.00000    2.36341
1580.50000    2.47205
1581.00000    2.57901
1581.50000    2.68339
1582.00000    2.78429
1582.50000    2.88076
1583.00000    2.97187
1583.50000    3.05665
1584.00000    3.13421
1584.50000    3.20365
1585.00000    3.26415
1585.50000    3.31496
1586.00000    3.35541
1586.50000    3.38493
1587.00000    3.40309
1587.50000    3.40956
1588.00000    3.40416
1588.50000    3.38687
1589.00000    3.35778
1589.50000    3.31717
1590.00000    3.26545
1590.50000    3.20316
1591.00000    3.13098
1591.50000    3.04969
1592.00000    2.96018
1592.50000    2.86343
1593.00000    2.76047
1593.50000    2.65238
1594.00000    2.54024
1594.50000    2.42516
1595.00000    2.30822
1595.50000    2.19046
1596.00000    2.07287
1596.50000    1.95637
1597.00000    1.84179
1597.50000    1.72989
1598.00000    1.62132
1598.50000    1.51663
1599.00000    1.41627
1599.50000    1.32059
1600.00000    1.22987
1600.50000    1.14426
1601.00000    1.06386
1601.50000    0.98869
1602.00000    0.91872
1602.50000    0.85384
1603.00000    0.79393
1603.50000    0.73882
1604.00000    0.68833
1604.50000    0.64223
1605.00000    0.60032
1605.50000    0.56236
1606.00000    0.52811
1606.50000    0.49734
1607.00000    0.46980
1607.50000    0.44527
1608.00000    0.42351
1608.50000    0.40428
1609.00000    0.38736
1609.50000    0.37252
1610.00000    0.35954
1610.50000    0.34821
1611.00000    0.33833
1611.50000    0.32969
1612.00000    0.32213
1612.50000    0.31547
1613.00000    0.30957
1613.50000    0.30430
1614.00000    0.29953
1614.50000    0.29519
1615.00000    0.29121
1615.50000    0.28752
1616.00000    0.28410
1616.50000    0.28094
1617.00000    0.27804
1617.50000    0.27541
1618.00000    0.27308
1618.50000    0.27108
1619.00000    0.26945
1619.50000    0.26822
1620.00000    0.26743
1620.50000    0.26711
1621.00000    0.26728
1621.50000    0.26797
1622.00000    0.26916
1622.50000    0.27087
1623.00000    0.27306
1623.50000    0.27571
1624.00000    0.27876
1624.50000    0.28216
1625.00000    0.28583
1625.50000    0.28969
1626.00000    0.29364
1626.50000    0.29757
1627.00000    0.30136
1627.50000    0.30490
1628.00000    0.30805
1628.50000    0.31068
1629.00000    0.31266
1629.50000    0.31385
1630.00000    0.31413
1630.50000    0.31338
1631.00000    0.31149
1631.50000    0.30836
1632.00000    0.30392
1632.50000    0.29810
1633.00000    0.29088
1633.50000    0.28224
1634.00000    0.27220
1634.50000    0.26079
1635.00000    0.24810
1635.50000    0.23422
1636.00000    0.21926
1636.50000    0.20339
1637.00000    0.18678
1637.50000    0.16959
1638.00000    0.15204
1638.50000    0.13433
1639.00000    0.11667
1639.50000    0.09926
1640.00000    0.08231
1640.50000    0.06600
1641.00000    0.05050
1641.50000    0.03595
1642.00000    0.02249
1642.50000    0.01020
1643.00000   -0.00083
1643.50000   -0.01058
1644.00000   -0.01904
1644.50000   -0.02621
1645.00000   -0.03215
1645.50000   -0.03692
1646.00000   -0.04062
1646.50000   -0.04334
1647.00000   -0.04521
1647.50000   -0.04634
1648.00000   -0.04687
1648.50000   -0.04693
1649.00000   -0.04662
1649.50000   -0.04606
1650.00000   -0.04535
1650.50000   -0.04455
1651.00000   -0.04373
1651.50000   -0.04294
1652.00000   -0.04217
1652.50000   -0.04145
1653.00000   -0.04075
1653.50000   -0.04004
1654.00000   -0.03928
1654.50000   -0.03840
1655.00000   -0.03736
1655.50000   -0.03608
1656.00000   -0.03452
1656.50000   -0.03262
1657.00000   -0.03034
1657.50000   -0.02764
1658.00000   -0.02451
1658.50000   -0.02095
1659.00000   -0.01698
1659.50000   -0.01264
1660.00000   -0.00798
1660.50000   -0.00306
1661.00000    0.00203
1661.50000    0.00720
1662.00000    0.01235
1662.50000    0.01738
1663.00000    0.02219
1663.50000    0.02667
1664.00000    0.03073
1664.50000    0.03429
1665.00000    0.03726
1665.50000    0.03959
1666.00000    0.04123
1666.50000    0.04215
1667.00000    0.04233
1667.50000    0.04178
1668.00000    0.04051
1668.50000    0.03855
1669.00000    0.03595
1669.50000    0.03278
1670.00000    0.02911
1670.50000    0.02502
1671.00000    0.02060
1671.50000    0.01596
1672.00000    0.01121
1672.50000    0.00645
1673.00000    0.00179
1673.50000   -0.00264
1674.00000   -0.00675
1674.50000   -0.01042
1675.00000   -0.01358
1675.50000   -0.01612
1676.00000   -0.01798
1676.50000   -0.01910
1677.00000   -0.01945
1677.50000   -0.01899
1678.00000   -0.01775
1678.50000   -0.01572
1679.00000   -0.01296
1679.50000   -0.00952
1680.00000   -0.00549
1680.50000   -0.00097
1681.00000    0.00394
1681.50000    0.00911
1682.00000    0.01440
1682.50000    0.01968
1683.00000    0.02481
1683.50000    0.02967
1684.00000    0.03412
1684.50000    0.03806
1685.00000    0.04139
1685.50000    0.04404
1686.00000    0.04595
1686.50000    0.04708
1687.00000    0.04742
1687.50000    0.04698
1688.00000    0.04578
1688.50000    0.04387
1689.00000    0.04131
1689.50000    0.03818
1690.00000    0.03456
1690.50000    0.03054
1691.00000    0.02622
1691.50000    0.02170
1692.00000    0.01708
1692.50000    0.01246
1693.00000    0.00794
1693.50000    0.00361
1694.00000   -0.00045
1694.50000   -0.00415
1695.00000   -0.00744
1695.50000   -0.01024
1696.00000   -0.01250
1696.50000   -0.01418
1697.00000   -0.01524
1697.50000   -0.01566
1698.00000   -0.01542
1698.50000   -0.01453
1699.00000   -0.01300
1699.50000   -0.01086
1700.00000   -0.00815
1700.50000   -0.00492
1701.00000   -0.00123
1701.50000    0.00282
1702.00000    0.00716
1702.50000    0.01169
1703.00000    0.01629
1703.50000    0.02085
1704.00000    0.02528
1704.50000    0.02945
1705.00000    0.03326
1705.50000    0.03661
1706.00000    0.03942
1706.50000    0.04161
1707.00000    0.04312
1707.50000    0.04391
1708.00000    0.04395
1708.50000    0.04324
1709.00000    0.04178
1709.50000    0.03960
1710.00000    0.03674
1710.50000    0.03325
1711.00000    0.02919
1711.50000    0.02464
1712.00000    0.01967
1712.50000    0.01436
1713.00000    0.00879
1713.50000    0.00304
1714.00000   -0.00281
1714.50000   -0.00869
1715.00000   -0.01453
1715.50000   -0.02027
1716.00000   -0.02585
1716.50000   -0.03122
1717.00000   -0.03633
1717.50000   -0.04115
1718.00000   -0.04562
1718.50000   -0.04972
1719.00000   -0.05343
1719.50000   -0.05671
1720.00000   -0.05954
1720.50000   -0.06191
1721.00000   -0.06381
1721.50000   -0.06523
1722.00000   -0.06616
1722.50000   -0.06661
1723.00000   -0.06658
1723.50000   -0.06609
1724.00000   -0.06515
1724.50000   -0.06380
1725.00000   -0.06204
1725.50000   -0.05992
1726.00000   -0.05745
1726.50000   -0.05468
1727.00000   -0.05163
1727.50000   -0.04833
1728.00000   -0.04481
1728.50000   -0.04107
1729.00000   -0.03714
1729.50000   -0.03303
1730.00000   -0.02873
1730.50000   -0.02424
1731.00000   -0.01954
1731.50000   -0.01462
1732.00000   -0.00946
1732.50000   -0.00402
1733.00000    0.00172
1733.50000    0.00778
1734.00000    0.01420
1734.50000    0.02099
1735.00000    0.02817
1735.50000    0.03575
1736.00000    0.04371
1736.50000    0.05205
1737.00000    0.06074
1737.50000    0.06974
1738.00000    0.07899
1738.50000    0.08841
1739.00000    0.09792
1739.50000    0.10743
1740.00000    0.11683
1740.50000    0.12599
1741.00000    0.13479
1741.50000    0.14309
1742.00000    0.15077
1742.50000    0.15768
1743.00000    0.16371
1743.50000    0.16871
1744.00000    0.17258
1744.50000    0.17522
1745.00000    0.17654
1745.50000    0.17646
1746.00000    0.17495
1746.50000    0.17198
1747.00000    0.16755
1747.50000    0.16168
1748.00000    0.15442
1748.50000    0.14586
1749.00000    0.13610
1749.50000    0.12526
1750.00000    0.11352
1750.50000    0.10102
1751.00000    0.08798
1751.50000    0.07460
1752.00000    0.06110
1752.50000    0.04769
1753.00000    0.03460
1753.50000    0.02204
1754.00000    0.01023
1754.50000   -0.00064
1755.00000   -0.01042
1755.50000   -0.01894
1756.00000   -0.02610
1756.50000   -0.03182
1757.00000   -0.03604
1757.50000   -0.03876
1758.00000   -0.03999
1758.50000   -0.03979
1759.00000   -0.03825
1759.50000   -0.03550
1760.00000   -0.03166
1760.50000   -0.02691
1761.00000   -0.02142
1761.50000   -0.01536
1762.00000   -0.00893
1762.50000   -0.00231
1763.00000    0.00434
1763.50000    0.01087
1764.00000    0.01714
1764.50000    0.02305
1765.00000    0.02851
1765.50000    0.03347
1766.00000    0.03789
1766.50000    0.04179
1767.00000    0.04516
1767.50000    0.04807
1768.00000    0.05055
1768.50000    0.05267
1769.00000    0.05450
1769.50000    0.05611
1770.00000    0.05756
1770.50000    0.05891
1771.00000    0.06022
1771.50000    0.06150
1772.00000    0.06277
1772.50000    0.06405
1773.00000    0.06530
1773.50000    0.06651
1774.00000    0.06762
1774.50000    0.06859
1775.00000    0.06936
1775.50000    0.06984
1776.00000    0.06999
1776.50000    0.06972
1777.00000    0.06897
1777.50000    0.06770
1778.00000    0.06584
1778.50000    0.06338
1779.00000    0.06027
1779.50000    0.05652
1780.00000    0.05213
1780.50000    0.04713
1781.00000    0.04154
1781.50000    0.03541
1782.00000    0.02880
1782.50000    0.02179
1783.00000    0.01445
1783.50000    0.00687
1784.00000   -0.00086
1784.50000   -0.00865
1785.00000   -0.01639
1785.50000   -0.02399
1786.00000   -0.03136
1786.50000   -0.03841
1787.00000   -0.04505
1787.50000   -0.05121
1788.00000   -0.05681
1788.50000   -0.06180
1789.00000   -0.06614
1789.50000   -0.06980
1790.00000   -0.07274
1790.50000   -0.07497
1791.00000   -0.07649
1791.50000   -0.07733
1792.00000   -0.07751
1792.50000   -0.07707
1793.00000   -0.07609
1793.50000   -0.07461
1794.00000   -0.07271
1794.50000   -0.07047
1795.00000   -0.06796
1795.50000   -0.06529
1796.00000   -0.06252
1796.50000   -0.05973
1797.00000   -0.05701
1797.50000   -0.05442
1798.00000   -0.05203
1798.50000   -0.04987
1799.00000   -0.04801
1799.50000   -0.04645
1800.00000   -0.04521
1800.50000   -0.04428
1801.00000   -0.04366
1801.50000   -0.04330
1802.00000   -0.04316
1802.50000   -0.04317
1803.00000   -0.04326
1803.50000   -0.04335
1804.00000   -0.04334
1804.50000   -0.04313
1805.00000   -0.04261
1805.50000   -0.04169
1806.00000   -0.04026
1806.50000   -0.03823
1807.00000   -0.03549
1807.50000   -0.03199
1808.00000   -0.02766
1808.50000   -0.02245
1809.00000   -0.01633
1809.50000   -0.00929
1810.00000   -0.00136
1810.50000    0.00744
1811.00000    0.01706
1811.50000    0.02743
1812.00000    0.03845
1812.50000    0.05001
1813.00000    0.06201
1813.50000    0.07431
1814.00000    0.08677
1814.50000    0.09925
1815.00000    0.11160
1815.50000    0.12368
1816.00000    0.13533
1816.50000    0.14641
1817.00000    0.15679
1817.50000    0.16635
1818.00000    0.17497
1818.50000    0.18255
1819.00000    0.18899
1819.50000    0.19423
1820.00000    0.19821
1820.50000    0.20089
1821.00000    0.20225
1821.50000    0.20230
1822.00000    0.20105
1822.50000    0.19854
1823.00000    0.19482
1823.50000    0.18997
1824.00000    0.18406
1824.50000    0.17722
1825.00000    0.16953
1825.50000    0.16111
1826.00000    0.15210
1826.50000    0.14261
1827.00000    0.13276
1827.50000    0.12267
1828.00000    0.11246
1828.50000    0.10223
1829.00000    0.09207
1829.50000    0.08208
1830.00000    0.07233
1830.50000    0.06288
1831.00000    0.05381
1831.50000    0.04516
1832.00000    0.03699
1832.50000    0.02935
1833.00000    0.02229
1833.50000    0.01586
1834.00000    0.01013
1834.50000    0.00514
1835.00000    0.00098
1835.50000   -0.00230
1836.00000   -0.00463
1836.50000   -0.00592
1837.00000   -0.00611
1837.50000   -0.00515
1838.00000   -0.00297
1838.50000    0.00047
1839.00000    0.00518
1839.50000    0.01116
1840.00000    0.01839
1840.50000    0.02682
1841.00000    0.03636
1841.50000    0.04692
1842.00000    0.05836
1842.50000    0.07051
1843.00000    0.08319
1843.50000    0.09622
1844.00000    0.10937
1844.50000    0.12243
1845.00000    0.13519
1845.50000    0.14745
1846.00000    0.15901
1846.50000    0.16970
1847.00000    0.17936
1847.50000    0.18789
1848.00000    0.19520
1848.50000    0.20122
1849.00000    0.20595
1849.50000    0.20939
1850.00000    0.21159
1850.50000    0.21262
1851.00000    0.21259
1851.50000    0.21160
1852.00000    0.20980
1852.50000    0.20731
1853.00000    0.20429
1853.50000    0.20088
1854.00000    0.19720
1854.50000    0.19337
1855.00000    0.18949
1855.50000    0.18565
1856.00000    0.18190
1856.50000    0.17828
1857.00000    0.17478
1857.50000    0.17141
1858.00000    0.16812
1858.50000    0.16487
1859.00000    0.16157
1859.50000    0.15816
1860.00000    0.15456
1860.50000    0.15067
1861.00000    0.14641
1861.50000    0.14171
1862.00000    0.13650
1862.50000    0.13074
1863.00000    0.12439
1863.50000    0.11745
1864.00000    0.10993
1864.50000    0.10185
1865.00000    0.09327
1865.50000    0.08426
1866.00000    0.07491
1866.50000    0.06532
1867.00000    0.05562
1867.50000    0.04591
1868.00000    0.03633
1868.50000    0.02700
1869.00000    0.01805
1869.50000    0.00958
1870.00000    0.00170
1870.50000   -0.00551
1871.00000   -0.01197
1871.50000   -0.01764
1872.00000   -0.02247
1872.50000   -0.02646
1873.00000   -0.02960
1873.50000   -0.03192
1874.00000   -0.03345
1874.50000   -0.03424
1875.00000   -0.03434
1875.50000   -0.03383
1876.00000   -0.03276
1876.50000   -0.03122
1877.00000   -0.02926
1877.50000   -0.02694
1878.00000   -0.02434
1878.50000   -0.02149
1879.00000   -0.01846
1879.50000   -0.01526
1880.00000   -0.01194
1880.50000   -0.00853
1881.00000   -0.00504
1881.50000   -0.00150
1882.00000    0.00206
1882.50000    0.00564
1883.00000    0.00919
1883.50000    0.01269
1884.00000    0.01611
1884.50000    0.01940
1885.00000    0.02251
1885.50000    0.02538
1886.00000    0.02796
1886.50000    0.03019
1887.00000    0.03199
1887.50000    0.03332
1888.00000    0.03410
1888.50000    0.03429
1889.00000    0.03384
1889.50000    0.03271
1890.00000    0.03090
1890.50000    0.02838
1891.00000    0.02518
1891.50000    0.02132
1892.00000    0.01685
1892.50000    0.01181
1893.00000    0.00629
1893.50000    0.00037
1894.00000   -0.00585
1894.50000   -0.01227
1895.00000   -0.01877
1895.50000   -0.02525
1896.00000   -0.03159
1896.50000   -0.03767
1897.00000   -0.04340
1897.50000   -0.04866
1898.00000   -0.05337
1898.50000   -0.05744
1899.00000   -0.06078
1899.50000   -0.06334
1900.00000   -0.06506
1900.50000   -0.06588
1901.00000   -0.06577
1901.50000   -0.06470
1902.00000   -0.06266
1902.50000   -0.05963
1903.00000   -0.05562
1903.50000   -0.05063
1904.00000   -0.04469
1904.50000   -0.03783
1905.00000   -0.03008
1905.50000   -0.02150
1906.00000   -0.01214
1906.50000   -0.00208
1907.00000    0.00860
1907.50000    0.01981
1908.00000    0.03144
1908.50000    0.04338
1909.00000    0.05553
1909.50000    0.06774
1910.00000    0.07989
1910.50000    0.09186
1911.00000    0.10350
1911.50000    0.11469
1912.00000    0.12532
1912.50000    0.13527
1913.00000    0.14444
1913.50000    0.15275
1914.00000    0.16013
1914.50000    0.16652
1915.00000    0.17189
1915.50000    0.17622
1916.00000    0.17953
1916.50000    0.18183
1917.00000    0.18315
1917.50000    0.18356
1918.00000    0.18311
1918.50000    0.18188
1919.00000    0.17994
1919.50000    0.17738
1920.00000    0.17429
1920.50000    0.17074
1921.00000    0.16682
1921.50000    0.16260
1922.00000    0.15813
1922.50000    0.15349
1923.00000    0.14872
1923.50000    0.14385
1924.00000    0.13892
1924.50000    0.13395
1925.00000    0.12895
1925.50000    0.12394
1926.00000    0.11893
1926.50000    0.11391
1927.00000    0.10888
1927.50000    0.10384
1928.00000    0.09878
1928.50000    0.09371
1929.00000    0.08861
1929.50000    0.08347
1930.00000    0.07829
1930.50000    0.07304
1931.00000    0.06773
1931.50000    0.06232
1932.00000    0.05679
1932.50000    0.05114
1933.00000    0.04533
1933.50000    0.03935
1934.00000    0.03317
1934.50000    0.02680
1935.00000    0.02022
1935.50000    0.01345
1936.00000    0.00649
1936.50000   -0.00063
1937.00000   -0.00785
1937.50000   -0.01512
1938.00000   -0.02238
1938.50000   -0.02952
1939.00000   -0.03646
1939.50000   -0.04308
1940.00000   -0.04927
1940.50000   -0.05492
1941.00000   -0.05990
1941.50000   -0.06412
1942.00000   -0.06747
1942.50000   -0.06988
1943.00000   -0.07128
1943.50000   -0.07163
1944.00000   -0.07091
1944.50000   -0.06914
1945.00000   -0.06634
1945.50000   -0.06259
1946.00000   -0.05796
1946.50000   -0.05255
1947.00000   -0.04649
1947.50000   -0.03990
1948.00000   -0.03292
1948.50000   -0.02568
1949.00000   -0.01833
1949.50000   -0.01097
1950.00000   -0.00374
1950.50000    0.00328
1951.00000    0.00999
1951.50000    0.01635
1952.00000    0.02230
1952.50000    0.02782
1953.00000    0.03289
1953.50000    0.03752
1954.00000    0.04172
1954.50000    0.04551
1955.00000    0.04893
1955.50000    0.05199
1956.00000    0.05472
1956.50000    0.05715
1957.00000    0.05929
1957.50000    0.06116
1958.00000    0.06275
1958.50000    0.06405
1959.00000    0.06506
1959.50000    0.06575
1960.00000    0.06610
1960.50000    0.06608
1961.00000    0.06566
1961.50000    0.06481
1962.00000    0.06351
1962.50000    0.06172
1963.00000    0.05945
1963.50000    0.05667
1964.00000    0.05338
1964.50000    0.04959
1965.00000    0.04533
1965.50000    0.04060
1966.00000    0.03544
1966.50000    0.02989
1967.00000    0.02400
1967.50000    0.01782
1968.00000    0.01140
1968.50000    0.00481
1969.00000   -0.00188
1969.50000   -0.00861
1970.00000   -0.01530
1970.50000   -0.02187
1971.00000   -0.02824
1971.50000   -0.03433
1972.00000   -0.04007
1972.50000   -0.04537
1973.00000   -0.05016
1973.50000   -0.05437
1974.00000   -0.05792
1974.50000   -0.06077
1975.00000   -0.06286
1975.50000   -0.06416
1976.00000   -0.06465
1976.50000   -0.06432
1977.00000   -0.06318
1977.50000   -0.06126
1978.00000   -0.05859
1978.50000   -0.05524
1979.00000   -0.05127
1979.50000   -0.04677
1980.00000   -0.04183
1980.50000   -0.03655
1981.00000   -0.03105
1981.50000   -0.02542
1982.00000   -0.01978
1982.50000   -0.01422
1983.00000   -0.00885
1983.50000   -0.00375
1984.00000    0.00100
1984.50000    0.00534
1985.00000    0.00919
1985.50000    0.01252
1986.00000    0.01529
1986.50000    0.01747
1987.00000    0.01904
1987.50000    0.01998
1988.00000    0.02029
1988.50000    0.01997
1989.00000    0.01902
1989.50000    0.01747
1990.00000    0.01533
1990.50000    0.01263
1991.00000    0.00941
1991.50000    0.00573
1992.00000    0.00165
1992.50000   -0.00276
1993.00000   -0.00739
1993.50000   -0.01214
1994.00000   -0.01689
1994.50000   -0.02151
1995.00000   -0.02586
1995.50000   -0.02979
1996.00000   -0.03318
1996.50000   -0.03588
1997.00000   -0.03776
1997.50000   -0.03872
1998.00000   -0.03867
1998.50000   -0.03755
1999.00000   -0.03534
1999.50000   -0.03204
2000.00000   -0.02768
2000.50000   -0.02234
2001.00000   -0.01611
2001.50000   -0.00914
2002.00000   -0.00158
2002.50000    0.00641
2003.00000    0.01462
2003.50000    0.02288
2004.00000    0.03099
2004.50000    0.03878
2005.00000    0.04610
2005.50000    0.05279
2006.00000    0.05877
2006.50000    0.06394
2007.00000    0.06827
2007.50000    0.07175
2008.00000    0.07439
2008.50000    0.07625
2009.00000    0.07739
2009.50000    0.07792
2010.00000    0.07792
2010.50000    0.07751
2011.00000    0.07680
2011.50000    0.07589
2012.00000    0.07487
2012.50000    0.07381
2013.00000    0.07276
2013.50000    0.07176
2014.00000    0.07082
2014.50000    0.06991
2015.00000    0.06902
2015.50000    0.06809
2016.00000    0.06707
2016.50000    0.06587
2017.00000    0.06444
2017.50000    0.06270
2018.00000    0.06059
2018.50000    0.05805
2019.00000    0.05505
2019.50000    0.05156
2020.00000    0.04758
2020.50000    0.04313
2021.00000    0.03823
2021.50000    0.03294
2022.00000    0.02731
2022.50000    0.02144
2023.00000    0.01540
2023.50000    0.00927
2024.00000    0.00314
2024.50000   -0.00290
2025.00000   -0.00879
2025.50000   -0.01448
2026.00000   -0.01991
2026.50000   -0.02507
2027.00000   -0.02993
2027.50000   -0.03452
2028.00000   -0.03885
2028.50000   -0.04296
2029.00000   -0.04689
2029.50000   -0.05070
2030.00000   -0.05445
2030.50000   -0.05818
2031.00000   -0.06195
2031.50000   -0.06579
2032.00000   -0.06974
2032.50000   -0.07380
2033.00000   -0.07798
2033.50000   -0.08224
2034.00000   -0.08656
2034.50000   -0.09089
2035.00000   -0.09516
2035.50000   -0.09931
2036.00000   -0.10324
2036.50000   -0.10690
2037.00000   -0.11018
2037.50000   -0.11303
2038.00000   -0.11536
2038.50000   -0.11712
2039.00000   -0.11826
2039.50000   -0.11874
2040.00000   -0.11853
2040.50000   -0.11763
2041.00000   -0.11602
2041.50000   -0.11372
2042.00000   -0.11075
2042.50000   -0.10712
2043.00000   -0.10286
2043.50000   -0.09801
2044.00000   -0.09260
2044.50000   -0.08668
2045.00000   -0.08028
2045.50000   -0.07344
2046.00000   -0.06622
2046.50000   -0.05866
2047.00000   -0.05080
2047.50000   -0.04269
2048.00000   -0.03440
2048.50000   -0.02599
2049.00000   -0.01750
2049.50000   -0.00902
2050.00000   -0.00059
2050.50000    0.00769
2051.00000    0.01578
2051.50000    0.02359
2052.00000    0.03108
2052.50000    0.03816
2053.00000    0.04480
2053.50000    0.05094
2054.00000    0.05653
2054.50000    0.06156
2055.00000    0.06599
2055.50000    0.06980
2056.00000    0.07298
2056.50000    0.07553
2057.00000    0.07745
2057.50000    0.07874
2058.00000    0.07942
2058.50000    0.07950
2059.00000    0.07898
2059.50000    0.07789
2060.00000    0.07625
2060.50000    0.07407
2061.00000    0.07139
2061.50000    0.06824
2062.00000    0.06465
2062.50000    0.06067
2063.00000    0.05634
2063.50000    0.05174
2064.00000    0.04693
2064.50000    0.04199
2065.00000    0.03700
2065.50000    0.03206
2066.00000    0.02726
2066.50000    0.02269
2067.00000    0.01844
2067.50000    0.01462
2068.00000    0.01130
2068.50000    0.00855
2069.00000    0.00644
2069.50000    0.00499
2070.00000    0.00425
2070.50000    0.00420
2071.00000    0.00485
2071.50000    0.00615
2072.00000    0.00805
2072.50000    0.01048
2073.00000    0.01336
2073.50000    0.01658
2074.00000    0.02004
2074.50000    0.02361
2075.00000    0.02719
2075.50000    0.03064
2076.00000    0.03385
2076.50000    0.03671
2077.00000    0.03910
2077.50000    0.04094
2078.00000    0.04215
2078.50000    0.04265
2079.00000    0.04238
2079.50000    0.04132
2080.00000    0.03943
2080.50000    0.03672
2081.00000    0.03319
2081.50000    0.02887
2082.00000    0.02382
2082.50000    0.01808
2083.00000    0.01174
2083.50000    0.00489
2084.00000   -0.00236
2084.50000   -0.00990
2085.00000   -0.01760
2085.50000   -0.02531
2086.00000   -0.03289
2086.50000   -0.04018
2087.00000   -0.04705
2087.50000   -0.05332
2088.00000   -0.05887
2088.50000   -0.06354
2089.00000   -0.06721
2089.50000   -0.06977
2090.00000   -0.07113
2090.50000   -0.07120
2091.00000   -0.06993
2091.50000   -0.06730
2092.00000   -0.06331
2092.50000   -0.05798
2093.00000   -0.05136
2093.50000   -0.04355
2094.00000   -0.03463
2094.50000   -0.02475
2095.00000   -0.01405
2095.50000   -0.00271
2096.00000    0.00907
2096.50000    0.02112
2097.00000    0.03320
2097.50000    0.04512
2098.00000    0.05666
2098.50000    0.06762
2099.00000    0.07780
2099.50000    0.08702
2100.00000    0.09512
2100.50000    0.10196
2101.00000    0.10741
2101.50000    0.11141
2102.00000    0.11388
2102.50000    0.11482
2103.00000    0.11422
2103.50000    0.11213
2104.00000    0.10861
2104.50000    0.10378
2105.00000    0.09775
2105.50000    0.09067
2106.00000    0.08272
2106.50000    0.07407
2107.00000    0.06492
2107.50000    0.05545
2108.00000    0.04586
2108.50000    0.03634
2109.00000    0.02705
2109.50000    0.01818
2110.00000    0.00984
2110.50000    0.00218
2111.00000   -0.00470
2111.50000   -0.01072
2112.00000   -0.01581
2112.50000   -0.01992
2113.00000   -0.02303
2113.50000   -0.02511
2114.00000   -0.02615
2114.50000   -0.02616
2115.00000   -0.02514
2115.50000   -0.02310
2116.00000   -0.02006
2116.50000   -0.01604
2117.00000   -0.01104
2117.50000   -0.00511
2118.00000    0.00173
2118.50000    0.00944
2119.00000    0.01797
2119.50000    0.02724
2120.00000    0.03718
2120.50000    0.04770
2121.00000    0.05869
2121.50000    0.07001
2122.00000    0.08154
2122.50000    0.09313
2123.00000    0.10462
2123.50000    0.11587
2124.00000    0.12673
2124.50000    0.13705
2125.00000    0.14673
2125.50000    0.15565
2126.00000    0.16374
2126.50000    0.17095
2127.00000    0.17725
2127.50000    0.18264
2128.00000    0.18715
2128.50000    0.19082
2129.00000    0.19371
2129.50000    0.19589
2130.00000    0.19743
2130.50000    0.19840
2131.00000    0.19886
2131.50000    0.19884
2132.00000    0.19837
2132.50000    0.19745
2133.00000    0.19605
2133.50000    0.19413
2134.00000    0.19163
2134.50000    0.18846
2135.00000    0.18453
2135.50000    0.17977
2136.00000    0.17408
2136.50000    0.16741
2137.00000    0.15970
2137.50000    0.15093
2138.00000    0.14112
2138.50000    0.13031
2139.00000    0.11859
2139.50000    0.10606
2140.00000    0.09287
2140.50000    0.07920
2141.00000    0.06523
2141.50000    0.05116
2142.00000    0.03721
2142.50000    0.02356
2143.00000    0.01042
2143.50000   -0.00206
2144.00000   -0.01373
2144.50000   -0.02446
2145.00000   -0.03417
2145.50000   -0.04280
2146.00000   -0.05032
2146.50000   -0.05674
2147.00000   -0.06207
2147.50000   -0.06635
2148.00000   -0.06963
2148.50000   -0.07199
2149.00000   -0.07350
2149.50000   -0.07422
2150.00000   -0.07424
2150.50000   -0.07361
2151.00000   -0.07241
2151.50000   -0.07070
2152.00000   -0.06853
2152.50000   -0.06596
2153.00000   -0.06303
2153.50000   -0.05979
2154.00000   -0.05628
2154.50000   -0.05254
2155.00000   -0.04860
2155.50000   -0.04451
2156.00000   -0.04030
2156.50000   -0.03599
2157.00000   -0.03163
2157.50000   -0.02724
2158.00000   -0.02283
2158.50000   -0.01844
2159.00000   -0.01406
2159.50000   -0.00972
2160.00000   -0.00543
2160.50000   -0.00119
2161.00000    0.00298
2161.50000    0.00707
2162.00000    0.01107
2162.50000    0.01493
2163.00000    0.01865
2163.50000    0.02216
2164.00000    0.02544
2164.50000    0.02843
2165.00000    0.03107
2165.50000    0.03330
2166.00000    0.03508
2166.50000    0.03635
2167.00000    0.03707
2167.50000    0.03721
2168.00000    0.03675
2168.50000    0.03571
2169.00000    0.03410
2169.50000    0.03197
2170.00000    0.02938
2170.50000    0.02642
2171.00000    0.02318
2171.50000    0.01977
2172.00000    0.01632
2172.50000    0.01296
2173.00000    0.00979
2173.50000    0.00694
2174.00000    0.00451
2174.50000    0.00258
2175.00000    0.00124
2175.50000    0.00052
2176.00000    0.00045
2176.50000    0.00104
2177.00000    0.00226
2177.50000    0.00408
2178.00000    0.00645
2178.50000    0.00931
2179.00000    0.01258
2179.50000    0.01618
2180.00000    0.02005
2180.50000    0.02412
2181.00000    0.02833
2181.50000    0.03263
2182.00000    0.03698
2182.50000    0.04137
2183.00000    0.04579
2183.50000    0.05025
2184.00000    0.05475
2184.50000    0.05932
2185.00000    0.06400
2185.50000    0.06880
2186.00000    0.07376
2186.50000    0.07890
2187.00000    0.08423
2187.50000    0.08976
2188.00000    0.09547
2188.50000    0.10135
2189.00000    0.10735
2189.50000    0.11344
2190.00000    0.11954
2190.50000    0.12559
2191.00000    0.13149
2191.50000    0.13715
2192.00000    0.14248
2192.50000    0.14737
2193.00000    0.15171
2193.50000    0.15540
2194.00000    0.15833
2194.50000    0.16039
2195.00000    0.16151
2195.50000    0.16158
2196.00000    0.16053
2196.50000    0.15830
2197.00000    0.15484
2197.50000    0.15011
2198.00000    0.14409
2198.50000    0.13679
2199.00000    0.12824
2199.50000    0.11849
2200.00000    0.10761
2200.50000    0.09572
2201.00000    0.08294
2201.50000    0.06943
2202.00000    0.05538
2202.50000    0.04097
2203.00000    0.02643
2203.50000    0.01199
2204.00000   -0.00213
2204.50000   -0.01569
2205.00000   -0.02848
2205.50000   -0.04029
2206.00000   -0.05096
2206.50000   -0.06034
2207.00000   -0.06831
2207.50000   -0.07482
2208.00000   -0.07982
2208.50000   -0.08335
2209.00000   -0.08545
2209.50000   -0.08622
2210.00000   -0.08577
2210.50000   -0.08426
2211.00000   -0.08185
2211.50000   -0.07871
2212.00000   -0.07501
2212.50000   -0.07092
2213.00000   -0.06656
2213.50000   -0.06207
2214.00000   -0.05755
2214.50000   -0.05305
2215.00000   -0.04861
2215.50000   -0.04425
2216.00000   -0.03996
2216.50000   -0.03569
2217.00000   -0.03141
2217.50000   -0.02706
2218.00000   -0.02260
2218.50000   -0.01798
2219.00000   -0.01318
2219.50000   -0.00818
2220.00000   -0.00299
2220.50000    0.00236
2221.00000    0.00782
2221.50000    0.01332
2222.00000    0.01879
2222.50000    0.02412
2223.00000    0.02923
2223.50000    0.03402
2224.00000    0.03840
2224.50000    0.04229
2225.00000    0.04562
2225.50000    0.04833
2226.00000    0.05040
2226.50000    0.05181
2227.00000    0.05256
2227.50000    0.05265
2228.00000    0.05211
2228.50000    0.05097
2229.00000    0.04927
2229.50000    0.04704
2230.00000    0.04433
2230.50000    0.04118
2231.00000    0.03761
2231.50000    0.03365
2232.00000    0.02935
2232.50000    0.02472
2233.00000    0.01979
2233.50000    0.01460
2234.00000    0.00919
2234.50000    0.00360
2235.00000   -0.00212
2235.50000   -0.00790
2236.00000   -0.01368
2236.50000   -0.01937
2237.00000   -0.02488
2237.50000   -0.03012
2238.00000   -0.03499
2238.50000   -0.03939
2239.00000   -0.04322
2239.50000   -0.04640
2240.00000   -0.04883
2240.50000   -0.05043
2241.00000   -0.05116
2241.50000   -0.05096
2242.00000   -0.04980
2242.50000   -0.04768
2243.00000   -0.04459
2243.50000   -0.04056
2244.00000   -0.03565
2244.50000   -0.02990
2245.00000   -0.02341
2245.50000   -0.01627
2246.00000   -0.00859
2246.50000   -0.00050
2247.00000    0.00787
2247.50000    0.01637
2248.00000    0.02486
2248.50000    0.03318
2249.00000    0.04119
2249.50000    0.04873
2250.00000    0.05567
2250.50000    0.06188
2251.00000    0.06726
2251.50000    0.07171
2252.00000    0.07516
2252.50000    0.07756
2253.00000    0.07888
2253.50000    0.07912
2254.00000    0.07830
2254.50000    0.07647
2255.00000    0.07368
2255.50000    0.07002
2256.00000    0.06559
2256.50000    0.06050
2257.00000    0.05485
2257.50000    0.04879
2258.00000    0.04242
2258.50000    0.03588
2259.00000    0.02929
2259.50000    0.02275
2260.00000    0.01638
2260.50000    0.01027
2261.00000    0.00450
2261.50000   -0.00085
2262.00000   -0.00571
2262.50000   -0.01005
2263.00000   -0.01380
2263.50000   -0.01697
2264.00000   -0.01951
2264.50000   -0.02144
2265.00000   -0.02277
2265.50000   -0.02350
2266.00000   -0.02367
2266.50000   -0.02333
2267.00000   -0.02250
2267.50000   -0.02126
2268.00000   -0.01966
2268.50000   -0.01776
2269.00000   -0.01564
2269.50000   -0.01336
2270.00000   -0.01098
2270.50000   -0.00857
2271.00000   -0.00620
2271.50000   -0.00391
2272.00000   -0.00175
2272.50000    0.00024
2273.00000    0.00202
2273.50000    0.00357
2274.00000    0.00487
2274.50000    0.00591
2275.00000    0.00667
2275.50000    0.00717
2276.00000    0.00740
2276.50000    0.00736
2277.00000    0.00706
2277.50000    0.00652
2278.00000    0.00575
2278.50000    0.00476
2279.00000    0.00357
2279.50000    0.00222
2280.00000    0.00071
2280.50000   -0.00092
2281.00000   -0.00265
2281.50000   -0.00444
2282.00000   -0.00627
2282.50000   -0.00811
2283.00000   -0.00993
2283.50000   -0.01172
2284.00000   -0.01344
2284.50000   -0.01511
2285.00000   -0.01669
2285.50000   -0.01821
2286.00000   -0.01965
2286.50000   -0.02103
2287.00000   -0.02236
2287.50000   -0.02365
2288.00000   -0.02490
2288.50000   -0.02614
2289.00000   -0.02734
2289.50000   -0.02852
2290.00000   -0.02965
2290.50000   -0.03072
2291.00000   -0.03171
2291.50000   -0.03257
2292.00000   -0.03328
2292.50000   -0.03380
2293.00000   -0.03410
2293.50000   -0.03416
2294.00000   -0.03396
2294.50000   -0.03350
2295.00000   -0.03279
2295.50000   -0.03184
2296.00000   -0.03070
2296.50000   -0.02941
2297.00000   -0.02804
2297.50000   -0.02665
2298.00000   -0.02530
2298.50000   -0.02407
2299.00000   -0.02301
2299.50000   -0.02217
2300.00000   -0.02159
2300.50000   -0.02129
2301.00000   -0.02127
2301.50000   -0.02150
2302.00000   -0.02196
2302.50000   -0.02259
2303.00000   -0.02332
2303.50000   -0.02409
2304.00000   -0.02483
2304.50000   -0.02545
2305.00000   -0.02590
2305.50000   -0.02613
2306.00000   -0.02610
2306.50000   -0.02579
2307.00000   -0.02519
2307.50000   -0.02432
2308.00000   -0.02322
2308.50000   -0.02191
2309.00000   -0.02046
2309.50000   -0.01892
2310.00000   -0.01734
2310.50000   -0.01577
2311.00000   -0.01423
2311.50000   -0.01276
2312.00000   -0.01137
2312.50000   -0.01004
2313.00000   -0.00875
2313.50000   -0.00745
2314.00000   -0.00611
2314.50000   -0.00465
2315.00000   -0.00303
2315.50000   -0.00119
2316.00000    0.00092
2316.50000    0.00333
2317.00000    0.00606
2317.50000    0.00911
2318.00000    0.01244
2318.50000    0.01601
2319.00000    0.01974
2319.50000    0.02354
2320.00000    0.02729
2320.50000    0.03088
2321.00000    0.03417
2321.50000    0.03703
2322.00000    0.03934
2322.50000    0.04097
2323.00000    0.04184
2323.50000    0.04186
2324.00000    0.04100
2324.50000    0.03922
2325.00000    0.03656
2325.50000    0.03306
2326.00000    0.02881
2326.50000    0.02393
2327.00000    0.01856
2327.50000    0.01289
2328.00000    0.00709
2328.50000    0.00139
2329.00000   -0.00401
2329.50000   -0.00887
2330.00000   -0.01301
2330.50000   -0.01620
2331.00000   -0.01829
2331.50000   -0.01913
2332.00000   -0.01860
2332.50000   -0.01662
2333.00000   -0.01317
2333.50000   -0.00826
2334.00000   -0.00195
2334.50000    0.00566
2335.00000    0.01444
2335.50000    0.02419
2336.00000    0.03472
2336.50000    0.04578
2337.00000    0.05713
2337.50000    0.06850
2338.00000    0.07966
2338.50000    0.09035
2339.00000    0.10036
2339.50000    0.10948
2340.00000    0.11756
2340.50000    0.12447
2341.00000    0.13013
2341.50000    0.13450
2342.00000    0.13757
2342.50000    0.13938
2343.00000    0.14002
2343.50000    0.13957
2344.00000    0.13816
2344.50000    0.13593
2345.00000    0.13302
2345.50000    0.12957
2346.00000    0.12574
2346.50000    0.12165
2347.00000    0.11742
2347.50000    0.11315
2348.00000    0.10891
2348.50000    0.10479
2349.00000    0.10081
2349.50000    0.09703
2350.00000    0.09345
2350.50000    0.09010
2351.00000    0.08697
2351.50000    0.08408
2352.00000    0.08142
2352.50000    0.07900
2353.00000    0.07682
2353.50000    0.07488
2354.00000    0.07317
2354.50000    0.07170
2355.00000    0.07046
2355.50000    0.06941
2356.00000    0.06854
2356.50000    0.06781
2357.00000    0.06715
2357.50000    0.06651
2358.00000    0.06580
2358.50000    0.06495
2359.00000    0.06387
2359.50000    0.06246
2360.00000    0.06065
2360.50000    0.05836
2361.00000    0.05552
2361.50000    0.05211
2362.00000    0.04808
2362.50000    0.04346
2363.00000    0.03825
2363.50000    0.03252
2364.00000    0.02634
2364.50000    0.01978
2365.00000    0.01296
2365.50000    0.00598
2366.00000   -0.00105
2366.50000   -0.00802
2367.00000   -0.01483
2367.50000   -0.02140
2368.00000   -0.02766
2368.50000   -0.03355
2369.00000   -0.03905
2369.50000   -0.04414
2370.00000   -0.04883
2370.50000   -0.05312
2371.00000   -0.05704
2371.50000   -0.06061
2372.00000   -0.06388
2372.50000   -0.06685
2373.00000   -0.06956
2373.50000   -0.07200
2374.00000   -0.07419
2374.50000   -0.07612
2375.00000   -0.07777
2375.50000   -0.07911
2376.00000   -0.08012
2376.50000   -0.08077
2377.00000   -0.08104
2377.50000   -0.08091
2378.00000   -0.08037
2378.50000   -0.07942
2379.00000   -0.07807
2379.50000   -0.07633
2380.00000   -0.07425
2380.50000   -0.07186
2381.00000   -0.06921
2381.50000   -0.06634
2382.00000   -0.06331
2382.50000   -0.06016
2383.00000   -0.05694
2383.50000   -0.05367
2384.00000   -0.05038
2384.50000   -0.04709
2385.00000   -0.04378
2385.50000   -0.04046
2386.00000   -0.03710
2386.50000   -0.03368
2387.00000   -0.03017
2387.50000   -0.02654
2388.00000   -0.02274
2388.50000   -0.01875
2389.00000   -0.01455
2389.50000   -0.01010
2390.00000   -0.00540
2390.50000   -0.00045
2391.00000    0.00476
2391.50000    0.01021
2392.00000    0.01586
2392.50000    0.02168
2393.00000    0.02763
2393.50000    0.03365
2394.00000    0.03966
2394.50000    0.04559
2395.00000    0.05137
2395.50000    0.05690
2396.00000    0.06209
2396.50000    0.06686
2397.00000    0.07110
2397.50000    0.07474
2398.00000    0.07768
2398.50000    0.07988
2399.00000    0.08125
2399.50000    0.08177
2400.00000    0.08141
2400.50000    0.08017
2401.00000    0.07805
2401.50000    0.07510
2402.00000    0.07137
2402.50000    0.06692
2403.00000    0.06185
2403.50000    0.05625
2404.00000    0.05022
2404.50000    0.04388
2405.00000    0.03733
2405.50000    0.03068
2406.00000    0.02401
2406.50000    0.01741
2407.00000    0.01096
2407.50000    0.00471
2408.00000   -0.00128
2408.50000   -0.00700
2409.00000   -0.01241
2409.50000   -0.01749
2410.00000   -0.02225
2410.50000   -0.02666
2411.00000   -0.03073
2411.50000   -0.03445
2412.00000   -0.03779
2412.50000   -0.04075
2413.00000   -0.04328
2413.50000   -0.04537
2414.00000   -0.04698
2414.50000   -0.04807
2415.00000   -0.04861
2415.50000   -0.04857
2416.00000   -0.04791
2416.50000   -0.04663
2417.00000   -0.04473
2417.50000   -0.04220
2418.00000   -0.03908
2418.50000   -0.03542
2419.00000   -0.03126
2419.50000   -0.02668
2420.00000   -0.02176
2420.50000   -0.01661
2421.00000   -0.01133
2421.50000   -0.00602
2422.00000   -0.00080
2422.50000    0.00421
2423.00000    0.00893
2423.50000    0.01323
2424.00000    0.01704
2424.50000    0.02028
2425.00000    0.02288
2425.50000    0.02479
2426.00000    0.02599
2426.50000    0.02644
2427.00000    0.02614
2427.50000    0.02511
2428.00000    0.02336
2428.50000    0.02094
2429.00000    0.01789
2429.50000    0.01426
2430.00000    0.01012
2430.50000    0.00555
2431.00000    0.00061
2431.50000   -0.00460
2432.00000   -0.01000
2432.50000   -0.01551
2433.00000   -0.02102
2433.50000   -0.02644
2434.00000   -0.03168
2434.50000   -0.03663
2435.00000   -0.04120
2435.50000   -0.04528
2436.00000   -0.04877
2436.50000   -0.05155
2437.00000   -0.05353
2437.50000   -0.05459
2438.00000   -0.05463
2438.50000   -0.05357
2439.00000   -0.05129
2439.50000   -0.04772
2440.00000   -0.04279
2440.50000   -0.03645
2441.00000   -0.02865
2441.50000   -0.01938
2442.00000   -0.00865
2442.50000    0.00351
2443.00000    0.01706
2443.50000    0.03189
2444.00000    0.04790
2444.50000    0.06496
2445.00000    0.08291
2445.50000    0.10157
2446.00000    0.12075
2446.50000    0.14023
2447.00000    0.15982
2447.50000    0.17928
2448.00000    0.19841
2448.50000    0.21701
2449.00000    0.23488
2449.50000    0.25184
2450.00000    0.26774
2450.50000    0.28244
2451.00000    0.29584
2451.50000    0.30784
2452.00000    0.31840
2452.50000    0.32748
2453.00000    0.33506
2453.50000    0.34116
2454.00000    0.34582
2454.50000    0.34907
2455.00000    0.35097
2455.50000    0.35160
2456.00000    0.35102
2456.50000    0.34931
2457.00000    0.34656
2457.50000    0.34282
2458.00000    0.33817
2458.50000    0.33268
2459.00000    0.32640
2459.50000    0.31938
2460.00000    0.31167
2460.50000    0.30331
2461.00000    0.29434
2461.50000    0.28479
2462.00000    0.27471
2462.50000    0.26412
2463.00000    0.25306
2463.50000    0.24159
2464.00000    0.22973
2464.50000    0.21755
2465.00000    0.20511
2465.50000    0.19245
2466.00000    0.17965
2466.50000    0.16677
2467.00000    0.15388
2467.50000    0.14107
2468.00000    0.12841
2468.50000    0.11597
2469.00000    0.10384
2469.50000    0.09210
2470.00000    0.08083
2470.50000    0.07012
2471.00000    0.06004
2471.50000    0.05068
2472.00000    0.04211
2472.50000    0.03440
2473.00000    0.02761
2473.50000    0.02181
2474.00000    0.01701
2474.50000    0.01325
2475.00000    0.01053
2475.50000    0.00883
2476.00000    0.00810
2476.50000    0.00828
2477.00000    0.00927
2477.50000    0.01097
2478.00000    0.01323
2478.50000    0.01590
2479.00000    0.01883
2479.50000    0.02186
2480.00000    0.02480
2480.50000    0.02752
2481.00000    0.02987
2481.50000    0.03172
2482.00000    0.03300
2482.50000    0.03362
2483.00000    0.03357
2483.50000    0.03282
2484.00000    0.03142
2484.50000    0.02940
2485.00000    0.02685
2485.50000    0.02385
2486.00000    0.02050
2486.50000    0.01690
2487.00000    0.01317
2487.50000    0.00939
2488.00000    0.00566
2488.50000    0.00203
2489.00000   -0.00142
2489.50000   -0.00467
2490.00000   -0.00767
2490.50000   -0.01041
2491.00000   -0.01288
2491.50000   -0.01509
2492.00000   -0.01703
2492.50000   -0.01870
2493.00000   -0.02010
2493.50000   -0.02122
2494.00000   -0.02207
2494.50000   -0.02264
2495.00000   -0.02291
2495.50000   -0.02288
2496.00000   -0.02256
2496.50000   -0.02193
2497.00000   -0.02101
2497.50000   -0.01984
2498.00000   -0.01843
2498.50000   -0.01684
2499.00000   -0.01510
2499.50000   -0.01329
2500.00000   -0.01145
2500.50000   -0.00965
2501.00000   -0.00794
2501.50000   -0.00635
2502.00000   -0.00493
2502.50000   -0.00369
2503.00000   -0.00262
2503.50000   -0.00172
2504.00000   -0.00095
2504.50000   -0.00026
2505.00000    0.00041
2505.50000    0.00112
2506.00000    0.00193
2506.50000    0.00291
2507.00000    0.00411
2507.50000    0.00557
2508.00000    0.00731
2508.50000    0.00934
2509.00000    0.01164
2509.50000    0.01416
2510.00000    0.01684
2510.50000    0.01959
2511.00000    0.02232
2511.50000    0.02491
2512.00000    0.02722
2512.50000    0.02914
2513.00000    0.03054
2513.50000    0.03131
2514.00000    0.03134
2514.50000    0.03055
2515.00000    0.02889
2515.50000    0.02632
2516.00000    0.02285
2516.50000    0.01850
2517.00000    0.01334
2517.50000    0.00747
2518.00000    0.00102
2518.50000   -0.00588
2519.00000   -0.01304
2519.50000   -0.02029
2520.00000   -0.02743
2520.50000   -0.03429
2521.00000   -0.04066
2521.50000   -0.04640
2522.00000   -0.05136
2522.50000   -0.05541
2523.00000   -0.05849
2523.50000   -0.06055
2524.00000   -0.06158
2524.50000   -0.06161
2525.00000   -0.06069
2525.50000   -0.05893
2526.00000   -0.05645
2526.50000   -0.05337
2527.00000   -0.04984
2527.50000   -0.04600
2528.00000   -0.04199
2528.50000   -0.03794
2529.00000   -0.03395
2529.50000   -0.03009
2530.00000   -0.02643
2530.50000   -0.02298
2531.00000   -0.01975
2531.50000   -0.01671
2532.00000   -0.01381
2532.50000   -0.01101
2533.00000   -0.00824
2533.50000   -0.00542
2534.00000   -0.00250
2534.50000    0.00057
2535.00000    0.00384
2535.50000    0.00733
2536.00000    0.01103
2536.50000    0.01495
2537.00000    0.01904
2537.50000    0.02325
2538.00000    0.02752
2538.50000    0.03179
2539.00000    0.03597
2539.50000    0.03998
2540.00000    0.04375
2540.50000    0.04720
2541.00000    0.05025
2541.50000    0.05286
2542.00000    0.05496
2542.50000    0.05652
2543.00000    0.05751
2543.50000    0.05789
2544.00000    0.05766
2544.50000    0.05683
2545.00000    0.05538
2545.50000    0.05335
2546.00000    0.05075
2546.50000    0.04762
2547.00000    0.04398
2547.50000    0.03989
2548.00000    0.03540
2548.50000    0.03056
2549.00000    0.02541
2549.50000    0.02003
2550.00000    0.01445
2550.50000    0.00873
2551.00000    0.00292
2551.50000   -0.00293
2552.00000   -0.00880
2552.50000   -0.01465
2553.00000   -0.02043
2553.50000   -0.02613
2554.00000   -0.03171
2554.50000   -0.03711
2555.00000   -0.04230
2555.50000   -0.04721
2556.00000   -0.05177
2556.50000   -0.05587
2557.00000   -0.05941
2557.50000   -0.06227
2558.00000   -0.06432
2558.50000   -0.06542
2559.00000   -0.06543
2559.50000   -0.06423
2560.00000   -0.06170
2560.50000   -0.05776
2561.00000   -0.05237
2561.50000   -0.04549
2562.00000   -0.03717
2562.50000   -0.02748
2563.00000   -0.01654
2563.50000   -0.00454
2564.00000    0.00832
2564.50000    0.02179
2565.00000    0.03560
2565.50000    0.04946
2566.00000    0.06309
2566.50000    0.07621
2567.00000    0.08855
2567.50000    0.09989
2568.00000    0.11004
2568.50000    0.11885
2569.00000    0.12623
2569.50000    0.13211
2570.00000    0.13651
2570.50000    0.13944
2571.00000    0.14098
2571.50000    0.14123
2572.00000    0.14031
2572.50000    0.13835
2573.00000    0.13548
2573.50000    0.13184
2574.00000    0.12755
2574.50000    0.12274
2575.00000    0.11750
2575.50000    0.11194
2576.00000    0.10614
2576.50000    0.10017
2577.00000    0.09411
2577.50000    0.08802
2578.00000    0.08197
2578.50000    0.07603
2579.00000    0.07025
2579.50000    0.06470
2580.00000    0.05945
2580.50000    0.05454
2581.00000    0.05004
2581.50000    0.04596
2582.00000    0.04233
2582.50000    0.03914
2583.00000    0.03639
2583.50000    0.03401
2584.00000    0.03194
2584.50000    0.03011
2585.00000    0.02841
2585.50000    0.02672
2586.00000    0.02495
2586.50000    0.02296
2587.00000    0.02066
2587.50000    0.01795
2588.00000    0.01475
2588.50000    0.01102
2589.00000    0.00672
2589.50000    0.00186
2590.00000   -0.00354
2590.50000   -0.00944
2591.00000   -0.01577
2591.50000   -0.02244
2592.00000   -0.02937
2592.50000   -0.03645
2593.00000   -0.04358
2593.50000   -0.05066
2594.00000   -0.05759
2594.50000   -0.06428
2595.00000   -0.07064
2595.50000   -0.07660
2596.00000   -0.08208
2596.50000   -0.08703
2597.00000   -0.09137
2597.50000   -0.09505
2598.00000   -0.09800
2598.50000   -0.10018
2599.00000   -0.10150
2599.50000   -0.10193
2600.00000   -0.10140
2600.50000   -0.09987
2601.00000   -0.09730
2601.50000   -0.09366
2602.00000   -0.08893
2602.50000   -0.08314
2603.00000   -0.07631
2603.50000   -0.06849
2604.00000   -0.05977
2604.50000   -0.05027
2605.00000   -0.04009
2605.50000   -0.02941
2606.00000   -0.01838
2606.50000   -0.00719
2607.00000    0.00397
2607.50000    0.01492
2608.00000    0.02546
2608.50000    0.03541
2609.00000    0.04462
2609.50000    0.05293
2610.00000    0.06024
2610.50000    0.06643
2611.00000    0.07145
2611.50000    0.07526
2612.00000    0.07785
2612.50000    0.07923
2613.00000    0.07946
2613.50000    0.07860
2614.00000    0.07673
2614.50000    0.07396
2615.00000    0.07039
2615.50000    0.06616
2616.00000    0.06137
2616.50000    0.05615
2617.00000    0.05060
2617.50000    0.04484
2618.00000    0.03896
2618.50000    0.03304
2619.00000    0.02715
2619.50000    0.02134
2620.00000    0.01566
2620.50000    0.01016
2621.00000    0.00486
2621.50000   -0.00020
2622.00000   -0.00500
2622.50000   -0.00949
2623.00000   -0.01363
2623.50000   -0.01739
2624.00000   -0.02069
2624.50000   -0.02347
2625.00000   -0.02567
2625.50000   -0.02720
2626.00000   -0.02797
2626.50000   -0.02792
2627.00000   -0.02696
2627.50000   -0.02504
2628.00000   -0.02208
2628.50000   -0.01807
2629.00000   -0.01297
2629.50000   -0.00678
2630.00000    0.00047
2630.50000    0.00876
2631.00000    0.01803
2631.50000    0.02823
2632.00000    0.03928
2632.50000    0.05113
2633.00000    0.06369
2633.50000    0.07691
2634.00000    0.09075
2634.50000    0.10516
2635.00000    0.12013
2635.50000    0.13566
2636.00000    0.15177
2636.50000    0.16849
2637.00000    0.18586
2637.50000    0.20396
2638.00000    0.22283
2638.50000    0.24256
2639.00000    0.26321
2639.50000    0.28485
2640.00000    0.30753
2640.50000    0.33133
2641.00000    0.35629
2641.50000    0.38246
2642.00000    0.40988
2642.50000    0.43861
2643.00000    0.46870
2643.50000    0.50022
2644.00000    0.53324
2644.50000    0.56786
2645.00000    0.60421
2645.50000    0.64243
2646.00000    0.68268
2646.50000    0.72517
2647.00000    0.77011
2647.50000    0.81775
2648.00000    0.86836
2648.50000    0.92220
2649.00000    0.97956
2649.50000    1.04073
2650.00000    1.10601
2650.50000    1.17565
2651.00000    1.24993
2651.50000    1.32909
2652.00000    1.41334
2652.50000    1.50287
2653.00000    1.59783
2653.50000    1.69835
2654.00000    1.80452
2654.50000    1.91638
2655.00000    2.03398
2655.50000    2.15729
2656.00000    2.28628
2656.50000    2.42091
2657.00000    2.56109
2657.50000    2.70674
2658.00000    2.85775
2658.50000    3.01402
2659.00000    3.17544
2659.50000    3.34188
2660.00000    3.51322
2660.50000    3.68935
2661.00000    3.87014
2661.50000    4.05547
2662.00000    4.24518
2662.50000    4.43913
2663.00000    4.63715
2663.50000    4.83905
2664.00000    5.04459
2664.50000    5.25352
2665.00000    5.46554
2665.50000    5.68028
2666.00000    5.89734
2666.50000    6.11626
2667.00000    6.33649
2667.50000    6.55745
2668.00000    6.77849
2668.50000    6.99887
2669.00000    7.21784
2669.50000    7.43457
2670.00000    7.64818
2670.50000    7.85778
2671.00000    8.06243
2671.50000    8.26120
2672.00000    8.45314
2672.50000    8.63733
2673.00000    8.81287
2673.50000    8.97889
2674.00000    9.13457
2674.50000    9.27916
2675.00000    9.41195
2675.50000    9.53232
2676.00000    9.63974
2676.50000    9.73374
2677.00000    9.81394
2677.50000    9.88003
2678.00000    9.93179
2678.50000    9.96909
2679.00000    9.99183
2679.50000   10.00000
2680.00000    9.99365
2680.50000    9.97287
2681.00000    9.93781
2681.50000    9.88865
2682.00000    9.82563
2682.50000    9.74902
2683.00000    9.65914
2683.50000    9.55634
2684.00000    9.44101
2684.50000    9.31359
2685.00000    9.17457
2685.50000    9.02446
2686.00000    8.86386
2686.50000    8.69337
2687.00000    8.51368
2687.50000    8.32549
2688.00000    8.12957
2688.50000    7.92672
2689.00000    7.71776
2689.50000    7.50357
2690.00000    7.28502
2690.50000    7.06301
2691.00000    6.83844
2691.50000    6.61220
2692.00000    6.38518
2692.50000    6.15822
2693.00000    5.93217
2693.50000    5.70780
2694.00000    5.48586
2694.50000    5.26705
2695.00000    5.05200
2695.50000    4.84128
2696.00000    4.63540
2696.50000    4.43482
2697.00000    4.23990
2697.50000    4.05097
2698.00000    3.86827
2698.50000    3.69198
2699.00000    3.52221
2699.50000    3.35904
2700.00000    3.20246
2700.50000    3.05243
2701.00000    2.90888
2701.50000    2.77167
2702.00000    2.64066
2702.50000    2.51565
2703.00000    2.39646
2703.50000    2.28287
2704.00000    2.17466
2704.50000    2.07162
2705.00000    1.97351
2705.50000    1.88013
2706.00000    1.79128
2706.50000    1.70674
2707.00000    1.62634
2707.50000    1.54990
2708.00000    1.47725
2708.50000    1.40824
2709.00000    1.34271
2709.50000    1.28052
2710.00000    1.22153
2710.50000    1.16561
2711.00000    1.11261
2711.50000    1.06242
2712.00000    1.01489
2712.50000    0.96989
2713.00000    0.92730
2713.50000    0.88698
2714.00000    0.84881
2714.50000    0.81266
2715.00000    0.77842
2715.50000    0.74598
2716.00000    0.71522
2716.50000    0.68604
2717.00000    0.65837
2717.50000    0.63210
2718.00000    0.60716
2718.50000    0.58349
2719.00000    0.56101
2719.50000    0.53967
2720.00000    0.51941
2720.50000    0.50018
2721.00000    0.48191
2721.50000    0.46456
2722.00000    0.44806
2722.50000    0.43236
2723.00000    0.41739
2723.50000    0.40308
2724.00000    0.38935
2724.50000    0.37612
2725.00000    0.36330
2725.50000    0.35080
2726.00000    0.33853
2726.50000    0.32639
2727.00000    0.31429
2727.50000    0.30215
2728.00000    0.28987
2728.50000    0.27739
2729.00000    0.26464
2729.50000    0.25158
2730.00000    0.23818
2730.50000    0.22444
2731.00000    0.21035
2731.50000    0.19596
2732.00000    0.18131
2732.50000    0.16648
2733.00000    0.15156
2733.50000    0.13665
2734.00000    0.12187
2734.50000    0.10736
2735.00000    0.09324
2735.50000    0.07966
2736.00000    0.06675
2736.50000    0.05462
2737.00000    0.04340
2737.50000    0.03319
2738.00000    0.02406
2738.50000    0.01608
2739.00000    0.00929
2739.50000    0.00371
2740.00000   -0.00065
2740.50000   -0.00381
2741.00000   -0.00581
2741.50000   -0.00668
2742.00000   -0.00647
2742.50000   -0.00525
2743.00000   -0.00307
2743.50000    0.00003
2744.00000    0.00398
2744.50000    0.00876
2745.00000    0.01434
2745.50000    0.02071
2746.00000    0.02785
2746.50000    0.03579
2747.00000    0.04453
2747.50000    0.05410
2748.00000    0.06452
2748.50000    0.07580
2749.00000    0.08795
2749.50000    0.10096
2750.00000    0.11480
2750.50000    0.12942
2751.00000    0.14473
2751.50000    0.16062
2752.00000    0.17693
2752.50000    0.19349
2753.00000    0.21009
2753.50000    0.22649
2754.00000    0.24243
2754.50000    0.25763
2755.00000    0.27180
2755.50000    0.28466
2756.00000    0.29593
2756.50000    0.30536
2757.00000    0.31269
2757.50000    0.31773
2758.00000    0.32031
2758.50000    0.32031
2759.00000    0.31768
2759.50000    0.31238
2760.00000    0.30445
2760.50000    0.29399
2761.00000    0.28114
2761.50000    0.26607
2762.00000    0.24903
2762.50000    0.23027
2763.00000    0.21008
2763.50000    0.18879
2764.00000    0.16670
2764.50000    0.14417
2765.00000    0.12151
2765.50000    0.09904
2766.00000    0.07708
2766.50000    0.05591
2767.00000    0.03578
2767.50000    0.01692
2768.00000   -0.00047
2768.50000   -0.01624
2769.00000   -0.03026
2769.50000   -0.04246
2770.00000   -0.05279
2770.50000   -0.06123
2771.00000   -0.06783
2771.50000   -0.07263
2772.00000   -0.07573
2772.50000   -0.07724
2773.00000   -0.07731
2773.50000   -0.07610
2774.00000   -0.07377
2774.50000   -0.07051
2775.00000   -0.06651
2775.50000   -0.06196
2776.00000   -0.05706
2776.50000   -0.05198
2777.00000   -0.04690
2777.50000   -0.04198
2778.00000   -0.03736
2778.50000   -0.03318
2779.00000   -0.02953
2779.50000   -0.02652
2780.00000   -0.02419
2780.50000   -0.02261
2781.00000   -0.02178
2781.50000   -0.02171
2782.00000   -0.02238
2782.50000   -0.02375
2783.00000   -0.02576
2783.50000   -0.02832
2784.00000   -0.03136
2784.50000   -0.03477
2785.00000   -0.03842
2785.50000   -0.04220
2786.00000   -0.04598
2786.50000   -0.04961
2787.00000   -0.05296
2787.50000   -0.05589
2788.00000   -0.05828
2788.50000   -0.06000
2789.00000   -0.06095
2789.50000   -0.06101
2790.00000   -0.06013
2790.50000   -0.05825
2791.00000   -0.05534
2791.50000   -0.05139
2792.00000   -0.04642
2792.50000   -0.04050
2793.00000   -0.03371
2793.50000   -0.02614
2794.00000   -0.01793
2794.50000   -0.00923
2795.00000   -0.00020
2795.50000    0.00899
2796.00000    0.01815
2796.50000    0.02711
2797.00000    0.03572
2797.50000    0.04381
2798.00000    0.05125
2798.50000    0.05795
2799.00000    0.06381
2799.50000    0.06880
2800.00000    0.07289
2800.50000    0.07609
2801.00000    0.07844
2801.50000    0.07999
2802.00000    0.08083
2802.50000    0.08105
2803.00000    0.08075
2803.50000    0.08004
2804.00000    0.07903
2804.50000    0.07782
2805.00000    0.07650
2805.50000    0.07515
2806.00000    0.07384
2806.50000    0.07261
2807.00000    0.07150
2807.50000    0.07053
2808.00000    0.06970
2808.50000    0.06900
2809.00000    0.06840
2809.50000    0.06787
2810.00000    0.06737
2810.50000    0.06684
2811.00000    0.06623
2811.50000    0.06547
2812.00000    0.06452
2812.50000    0.06330
2813.00000    0.06176
2813.50000    0.05985
2814.00000    0.05752
2814.50000    0.05475
2815.00000    0.05151
2815.50000    0.04779
2816.00000    0.04361
2816.50000    0.03901
2817.00000    0.03403
2817.50000    0.02873
2818.00000    0.02322
2818.50000    0.01759
2819.00000    0.01195
2819.50000    0.00642
2820.00000    0.00113
2820.50000   -0.00381
2821.00000   -0.00829
2821.50000   -0.01224
2822.00000   -0.01557
2822.50000   -0.01826
2823.00000   -0.02030
2823.50000   -0.02169
2824.00000   -0.02251
2824.50000   -0.02282
2825.00000   -0.02274
2825.50000   -0.02237
2826.00000   -0.02186
2826.50000   -0.02134
2827.00000   -0.02094
2827.50000   -0.02078
2828.00000   -0.02095
2828.50000   -0.02153
2829.00000   -0.02256
2829.50000   -0.02405
2830.00000   -0.02599
2830.50000   -0.02832
2831.00000   -0.03099
2831.50000   -0.03390
2832.00000   -0.03696
2832.50000   -0.04006
2833.00000   -0.04309
2833.50000   -0.04598
2834.00000   -0.04864
2834.50000   -0.05102
2835.00000   -0.05307
2835.50000   -0.05480
2836.00000   -0.05618
2836.50000   -0.05725
2837.00000   -0.05802
2837.50000   -0.05853
2838.00000   -0.05881
2838.50000   -0.05885
2839.00000   -0.05867
2839.50000   -0.05825
2840.00000   -0.05753
2840.50000   -0.05645
2841.00000   -0.05493
2841.50000   -0.05285
2842.00000   -0.05010
2842.50000   -0.04656
2843.00000   -0.04210
2843.50000   -0.03662
2844.00000   -0.03004
2844.50000   -0.02231
2845.00000   -0.01342
2845.50000   -0.00340
2846.00000    0.00767
2846.50000    0.01967
2847.00000    0.03242
2847.50000    0.04571
2848.00000    0.05930
2848.50000    0.07293
2849.00000    0.08631
2849.50000    0.09917
2850.00000    0.11122
2850.50000    0.12221
2851.00000    0.13191
2851.50000    0.14011
2852.00000    0.14668
2852.50000    0.15148
2853.00000    0.15447
2853.50000    0.15561
2854.00000    0.15494
2854.50000    0.15252
2855.00000    0.14846
2855.50000    0.14289
2856.00000    0.13598
2856.50000    0.12791
2857.00000    0.11888
2857.50000    0.10910
2858.00000    0.09877
2858.50000    0.08810
2859.00000    0.07729
2859.50000    0.06653
2860.00000    0.05599
2860.50000    0.04583
2861.00000    0.03618
2861.50000    0.02715
2862.00000    0.01883
2862.50000    0.01127
2863.00000    0.00451
2863.50000   -0.00144
2864.00000   -0.00660
2864.50000   -0.01101
2865.00000   -0.01473
2865.50000   -0.01783
2866.00000   -0.02040
2866.50000   -0.02252
2867.00000   -0.02430
2867.50000   -0.02581
2868.00000   -0.02713
2868.50000   -0.02832
2869.00000   -0.02943
2869.50000   -0.03049
2870.00000   -0.03148
2870.50000   -0.03238
2871.00000   -0.03317
2871.50000   -0.03377
2872.00000   -0.03412
2872.50000   -0.03413
2873.00000   -0.03373
2873.50000   -0.03284
2874.00000   -0.03139
2874.50000   -0.02935
2875.00000   -0.02667
2875.50000   -0.02336
2876.00000   -0.01945
2876.50000   -0.01498
2877.00000   -0.01004
2877.50000   -0.00471
2878.00000    0.00088
2878.50000    0.00660
2879.00000    0.01232
2879.50000    0.01791
2880.00000    0.02325
2880.50000    0.02822
2881.00000    0.03273
2881.50000    0.03672
2882.00000    0.04016
2882.50000    0.04301
2883.00000    0.04530
2883.50000    0.04705
2884.00000    0.04830
2884.50000    0.04913
2885.00000    0.04959
2885.50000    0.04974
2886.00000    0.04965
2886.50000    0.04936
2887.00000    0.04889
2887.50000    0.04826
2888.00000    0.04747
2888.50000    0.04649
2889.00000    0.04527
2889.50000    0.04376
2890.00000    0.04191
2890.50000    0.03963
2891.00000    0.03687
2891.50000    0.03356
2892.00000    0.02964
2892.50000    0.02509
2893.00000    0.01987
2893.50000    0.01398
2894.00000    0.00744
2894.50000    0.00026
2895.00000   -0.00750
2895.50000   -0.01579
2896.00000   -0.02455
2896.50000   -0.03369
2897.00000   -0.04314
2897.50000   -0.05284
2898.00000   -0.06270
2898.50000   -0.07268
2899.00000   -0.08271
2899.50000   -0.09275
