1200.50000    0.00194
1201.00000   -0.00928
1201.50000   -0.02031
1202.00000   -0.03097
1202.50000   -0.04105
1203.00000   -0.05030
1203.50000   -0.05848
1204.00000   -0.06532
1204.50000   -0.07058
1205.00000   -0.07402
1205.50000   -0.07547
1206.00000   -0.07478
1206.50000   -0.07187
1207.00000   -0.06672
1207.50000   -0.05939
1208.00000   -0.04999
1208.50000   -0.03872
1209.00000   -0.02584
1209.50000   -0.01167
1210.00000    0.00340
1210.50000    0.01897
1211.00000    0.03458
1211.50000    0.04978
1212.00000    0.06413
1212.50000    0.07720
1213.00000    0.08859
1213.50000    0.09798
1214.00000    0.10509
1214.50000    0.10971
1215.00000    0.11174
1215.50000    0.11112
1216.00000    0.10791
1216.50000    0.10224
1217.00000    0.09429
1217.50000    0.08434
1218.00000    0.07270
1218.50000    0.05971
1219.00000    0.04576
1219.50000    0.03123
1220.00000    0.01648
1220.50000    0.00187
1221.00000   -0.01230
1221.50000   -0.02574
1222.00000   -0.03825
1222.50000   -0.04966
1223.00000   -0.05988
1223.50000   -0.06884
1224.00000   -0.07656
1224.50000   -0.08308
1225.00000   -0.08850
1225.50000   -0.09293
1226.00000   -0.09650
1226.50000   -0.09935
1227.00000   -0.10162
1227.50000   -0.10343
1228.00000   -0.10487
1228.50000   -0.10604
1229.00000   -0.10695
1229.50000   -0.10764
1230.00000   -0.10807
1230.50000   -0.10819
1231.00000   -0.10793
1231.50000   -0.10719
1232.00000   -0.10585
1232.50000   -0.10380
1233.00000   -0.10090
1233.50000   -0.09705
1234.00000   -0.09215
1234.50000   -0.08611
1235.00000   -0.07888
1235.50000   -0.07043
1236.00000   -0.06076
1236.50000   -0.04991
1237.00000   -0.03795
1237.50000   -0.02497
1238.00000   -0.01109
1238.50000    0.00352
1239.00000    0.01869
1239.50000    0.03422
1240.00000    0.04991
1240.50000    0.06553
1241.00000    0.08083
1241.50000    0.09559
1242.00000    0.10956
1242.50000    0.12252
1243.00000    0.13423
1243.50000    0.14447
1244.00000    0.15306
1244.50000    0.15980
1245.00000    0.16455
1245.50000    0.16718
1246.00000    0.16760
1246.50000    0.16573
1247.00000    0.16157
1247.50000    0.15513
1248.00000    0.14648
1248.50000    0.13572
1249.00000    0.12299
1249.50000    0.10850
1250.00000    0.09248
1250.50000    0.07519
1251.00000    0.05695
1251.50000    0.03808
1252.00000    0.01893
1252.50000   -0.00013
1253.00000   -0.01873
1253.50000   -0.03652
1254.00000   -0.05314
1254.50000   -0.06828
1255.00000   -0.08163
1255.50000   -0.09293
1256.00000   -0.10199
1256.50000   -0.10861
1257.00000   -0.11271
1257.50000   -0.11420
1258.00000   -0.11309
1258.50000   -0.10944
1259.00000   -0.10334
1259.50000   -0.09494
1260.00000   -0.08445
1260.50000   -0.07211
1261.00000   -0.05818
1261.50000   -0.04296
1262.00000   -0.02676
1262.50000   -0.00991
1263.00000    0.00727
1263.50000    0.02447
1264.00000    0.04136
1264.50000    0.05765
1265.00000    0.07307
1265.50000    0.08739
1266.00000    0.10037
1266.50000    0.11186
1267.00000    0.12169
1267.50000    0.12977
1268.00000    0.13604
1268.50000    0.14045
1269.00000    0.14303
1269.50000    0.14382
1270.00000    0.14289
1270.50000    0.14035
1271.00000    0.13633
1271.50000    0.13097
1272.00000    0.12445
1272.50000    0.11694
1273.00000    0.10863
1273.50000    0.09970
1274.00000    0.09034
1274.50000    0.08073
1275.00000    0.07104
1275.50000    0.06141
1276.00000    0.05200
1276.50000    0.04292
1277.00000    0.03428
1277.50000    0.02615
1278.00000    0.01860
1278.50000    0.01167
1279.00000    0.00538
1279.50000   -0.00026
1280.00000   -0.00526
1280.50000   -0.00964
1281.00000   -0.01343
1281.50000   -0.01668
1282.00000   -0.01943
1282.50000   -0.02174
1283.00000   -0.02368
1283.50000   -0.02529
1284.00000   -0.02666
1284.50000   -0.02785
1285.00000   -0.02892
1285.50000   -0.02996
1286.00000   -0.03102
1286.50000   -0.03217
1287.00000   -0.03350
1287.50000   -0.03506
1288.00000   -0.03692
1288.50000   -0.03915
1289.00000   -0.04180
1289.50000   -0.04492
1290.00000   -0.04854
1290.50000   -0.05270
1291.00000   -0.05741
1291.50000   -0.06265
1292.00000   -0.06840
1292.50000   -0.07462
1293.00000   -0.08122
1293.50000   -0.08812
1294.00000   -0.09520
1294.50000   -0.10229
1295.00000   -0.10925
1295.50000   -0.11588
1296.00000   -0.12198
1296.50000   -0.12733
1297.00000   -0.13173
1297.50000   -0.13494
1298.00000   -0.13676
1298.50000   -0.13699
1299.00000   -0.13545
1299.50000   -0.13200
1300.00000   -0.12652
1300.50000   -0.11894
1301.00000   -0.10922
1301.50000   -0.09740
1302.00000   -0.08354
1302.50000   -0.06778
1303.00000   -0.05031
1303.50000   -0.03136
1304.00000   -0.01122
1304.50000    0.00976
1305.00000    0.03123
1305.50000    0.05278
1306.00000    0.07397
1306.50000    0.09438
1307.00000    0.11357
1307.50000    0.13110
1308.00000    0.14657
1308.50000    0.15960
1309.00000    0.16985
1309.50000    0.17703
1310.00000    0.18092
1310.50000    0.18136
1311.00000    0.17826
1311.50000    0.17160
1312.00000    0.16145
1312.50000    0.14795
1313.00000    0.13131
1313.50000    0.11180
1314.00000    0.08977
1314.50000    0.06561
1315.00000    0.03976
1315.50000    0.01270
1316.00000   -0.01509
1316.50000   -0.04308
1317.00000   -0.07076
1317.50000   -0.09764
1318.00000   -0.12321
1318.50000   -0.14703
1319.00000   -0.16867
1319.50000   -0.18775
1320.00000   -0.20395
1320.50000   -0.21699
1321.00000   -0.22666
1321.50000   -0.23282
1322.00000   -0.23537
1322.50000   -0.23429
1323.00000   -0.22961
1323.50000   -0.22143
1324.00000   -0.20989
1324.50000   -0.19521
1325.00000   -0.17763
1325.50000   -0.15747
1326.00000   -0.13508
1326.50000   -0.11082
1327.00000   -0.08512
1327.50000   -0.05842
1328.00000   -0.03117
1328.50000   -0.00383
1329.00000    0.02312
1329.50000    0.04925
1330.00000    0.07410
1330.50000    0.09727
1331.00000    0.11839
1331.50000    0.13714
1332.00000    0.15323
1332.50000    0.16647
1333.00000    0.17670
1333.50000    0.18385
1334.00000    0.18793
1334.50000    0.18899
1335.00000    0.18718
1335.50000    0.18270
1336.00000    0.17581
1336.50000    0.16682
1337.00000    0.15606
1337.50000    0.14392
1338.00000    0.13077
1338.50000    0.11699
1339.00000    0.10296
1339.50000    0.08899
1340.00000    0.07540
1340.50000    0.06243
1341.00000    0.05030
1341.50000    0.03913
1342.00000    0.02901
1342.50000    0.01999
1343.00000    0.01203
1343.50000    0.00507
1344.00000   -0.00100
1344.50000   -0.00630
1345.00000   -0.01098
1345.50000   -0.01520
1346.00000   -0.01910
1346.50000   -0.02281
1347.00000   -0.02645
1347.50000   -0.03009
1348.00000   -0.03378
1348.50000   -0.03753
1349.00000   -0.04131
1349.50000   -0.04506
1350.00000   -0.04872
1350.50000   -0.05216
1351.00000   -0.05527
1351.50000   -0.05793
1352.00000   -0.06002
1352.50000   -0.06142
1353.00000   -0.06202
1353.50000   -0.06177
1354.00000   -0.06061
1354.50000   -0.05852
1355.00000   -0.05552
1355.50000   -0.05164
1356.00000   -0.04695
1356.50000   -0.04156
1357.00000   -0.03557
1357.50000   -0.02911
1358.00000   -0.02232
1358.50000   -0.01535
1359.00000   -0.00832
1359.50000   -0.00138
1360.00000    0.00534
1360.50000    0.01174
1361.00000    0.01770
1361.50000    0.02313
1362.00000    0.02795
1362.50000    0.03208
1363.00000    0.03547
1363.50000    0.03806
1364.00000    0.03981
1364.50000    0.04067
1365.00000    0.04060
1365.50000    0.03958
1366.00000    0.03758
1366.50000    0.03459
1367.00000    0.03058
1367.50000    0.02558
1368.00000    0.01960
1368.50000    0.01268
1369.00000    0.00489
1369.50000   -0.00369
1370.00000   -0.01295
1370.50000   -0.02276
1371.00000   -0.03295
1371.50000   -0.04333
1372.00000   -0.05370
1372.50000   -0.06384
1373.00000   -0.07350
1373.50000   -0.08244
1374.00000   -0.09041
1374.50000   -0.09717
1375.00000   -0.10250
1375.50000   -0.10618
1376.00000   -0.10803
1376.50000   -0.10790
1377.00000   -0.10567
1377.50000   -0.10126
1378.00000   -0.09463
1378.50000   -0.08579
1379.00000   -0.07480
1379.50000   -0.06173
1380.00000   -0.04674
1380.50000   -0.02998
1381.00000   -0.01166
1381.50000    0.00797
1382.00000    0.02865
1382.50000    0.05009
1383.00000    0.07200
1383.50000    0.09406
1384.00000    0.11595
1384.50000    0.13736
1385.00000    0.15799
1385.50000    0.17753
1386.00000    0.19571
1386.50000    0.21227
1387.00000    0.22700
1387.50000    0.23968
1388.00000    0.25016
1388.50000    0.25832
1389.00000    0.26405
1389.50000    0.26731
1390.00000    0.26809
1390.50000    0.26640
1391.00000    0.26231
1391.50000    0.25590
1392.00000    0.24730
1392.50000    0.23665
1393.00000    0.22412
1393.50000    0.20989
1394.00000    0.19416
1394.50000    0.17713
1395.00000    0.15900
1395.50000    0.13998
1396.00000    0.12028
1396.50000    0.10010
1397.00000    0.07963
1397.50000    0.05906
1398.00000    0.03858
1398.50000    0.01837
1399.00000   -0.00139
1399.50000   -0.02051
1400.00000   -0.03882
1400.50000   -0.05611
1401.00000   -0.07222
1401.50000   -0.08694
1402.00000   -0.10007
1402.50000   -0.11142
1403.00000   -0.12079
1403.50000   -0.12801
1404.00000   -0.13288
1404.50000   -0.13525
1405.00000   -0.13500
1405.50000   -0.13202
1406.00000   -0.12624
1406.50000   -0.11766
1407.00000   -0.10629
1407.50000   -0.09223
1408.00000   -0.07562
1408.50000   -0.05665
1409.00000   -0.03558
1409.50000   -0.01272
1410.00000    0.01157
1410.50000    0.03688
1411.00000    0.06277
1411.50000    0.08877
1412.00000    0.11441
1412.50000    0.13920
1413.00000    0.16267
1413.50000    0.18436
1414.00000    0.20385
1414.50000    0.22077
1415.00000    0.23480
1415.50000    0.24567
1416.00000    0.25318
1416.50000    0.25721
1417.00000    0.25771
1417.50000    0.25470
1418.00000    0.24827
1418.50000    0.23858
1419.00000    0.22585
1419.50000    0.21037
1420.00000    0.19246
1420.50000    0.17249
1421.00000    0.15086
1421.50000    0.12799
1422.00000    0.10430
1422.50000    0.08022
1423.00000    0.05617
1423.50000    0.03254
1424.00000    0.00969
1424.50000   -0.01203
1425.00000   -0.03233
1425.50000   -0.05098
1426.00000   -0.06779
1426.50000   -0.08260
1427.00000   -0.09534
1427.50000   -0.10599
1428.00000   -0.11456
1428.50000   -0.12113
1429.00000   -0.12581
1429.50000   -0.12878
1430.00000   -0.13022
1430.50000   -0.13035
1431.00000   -0.12940
1431.50000   -0.12762
1432.00000   -0.12525
1432.50000   -0.12252
1433.00000   -0.11962
1433.50000   -0.11676
1434.00000   -0.11406
1434.50000   -0.11163
1435.00000   -0.10955
1435.50000   -0.10782
1436.00000   -0.10642
1436.50000   -0.10529
1437.00000   -0.10431
1437.50000   -0.10334
1438.00000   -0.10223
1438.50000   -0.10079
1439.00000   -0.09884
1439.50000   -0.09619
1440.00000   -0.09268
1440.50000   -0.08816
1441.00000   -0.08252
1441.50000   -0.07570
1442.00000   -0.06765
1442.50000   -0.05842
1443.00000   -0.04806
1443.50000   -0.03670
1444.00000   -0.02449
1444.50000   -0.01164
1445.00000    0.00162
1445.50000    0.01504
1446.00000    0.02837
1446.50000    0.04133
1447.00000    0.05369
1447.50000    0.06521
1448.00000    0.07569
1448.50000    0.08498
1449.00000    0.09295
1449.50000    0.09955
1450.00000    0.10475
1450.50000    0.10860
1451.00000    0.11118
1451.50000    0.11261
1452.00000    0.11306
1452.50000    0.11272
1453.00000    0.11179
1453.50000    0.11048
1454.00000    0.10901
1454.50000    0.10757
1455.00000    0.10633
1455.50000    0.10546
1456.00000    0.10505
1456.50000    0.10519
1457.00000    0.10591
1457.50000    0.10721
1458.00000    0.10903
1458.50000    0.11128
1459.00000    0.11385
1459.50000    0.11658
1460.00000    0.11931
1460.50000    0.12185
1461.00000    0.12400
1461.50000    0.12557
1462.00000    0.12637
1462.50000    0.12625
1463.00000    0.12503
1463.50000    0.12259
1464.00000    0.11883
1464.50000    0.11367
1465.00000    0.10708
1465.50000    0.09903
1466.00000    0.08956
1466.50000    0.07872
1467.00000    0.06658
1467.50000    0.05326
1468.00000    0.03888
1468.50000    0.02361
1469.00000    0.00762
1469.50000   -0.00890
1470.00000   -0.02575
1470.50000   -0.04273
1471.00000   -0.05960
1471.50000   -0.07617
1472.00000   -0.09222
1472.50000   -0.10753
1473.00000   -0.12192
1473.50000   -0.13520
1474.00000   -0.14721
1474.50000   -0.15781
1475.00000   -0.16687
1475.50000   -0.17430
1476.00000   -0.18005
1476.50000   -0.18406
1477.00000   -0.18635
1477.50000   -0.18694
1478.00000   -0.18589
1478.50000   -0.18329
1479.00000   -0.17924
1479.50000   -0.17389
1480.00000   -0.16739
1480.50000   -0.15991
1481.00000   -0.15163
1481.50000   -0.14274
1482.00000   -0.13340
1482.50000   -0.12381
1483.00000   -0.11411
1483.50000   -0.10445
1484.00000   -0.09497
1484.50000   -0.08575
1485.00000   -0.07688
1485.50000   -0.06841
1486.00000   -0.06037
1486.50000   -0.05277
1487.00000   -0.04557
1487.50000   -0.03874
1488.00000   -0.03224
1488.50000   -0.02599
1489.00000   -0.01992
1489.50000   -0.01395
1490.00000   -0.00803
1490.50000   -0.00208
1491.00000    0.00396
1491.50000    0.01011
1492.00000    0.01641
1492.50000    0.02287
1493.00000    0.02946
1493.50000    0.03618
1494.00000    0.04297
1494.50000    0.04979
1495.00000    0.05657
1495.50000    0.06325
1496.00000    0.06976
1496.50000    0.07604
1497.00000    0.08203
1497.50000    0.08767
1498.00000    0.09294
1498.50000    0.09781
1499.00000    0.10228
1499.50000    0.10635
1500.00000    0.11007
1500.50000    0.11346
1501.00000    0.11659
1501.50000    0.11952
1502.00000    0.12231
1502.50000    0.12504
1503.00000    0.12777
1503.50000    0.13056
1504.00000    0.13344
1504.50000    0.13644
1505.00000    0.13956
1505.50000    0.14280
1506.00000    0.14610
1506.50000    0.14942
1507.00000    0.15268
1507.50000    0.15577
1508.00000    0.15859
1508.50000    0.16101
1509.00000    0.16292
1509.50000    0.16420
1510.00000    0.16471
1510.50000    0.16438
1511.00000    0.16311
1511.50000    0.16085
1512.00000    0.15757
1512.50000    0.15326
1513.00000    0.14797
1513.50000    0.14175
1514.00000    0.13470
1514.50000    0.12693
1515.00000    0.11858
1515.50000    0.10982
1516.00000    0.10080
1516.50000    0.09169
1517.00000    0.08267
1517.50000    0.07387
1518.00000    0.06545
1518.50000    0.05750
1519.00000    0.05011
1519.50000    0.04333
1520.00000    0.03717
1520.50000    0.03161
1521.00000    0.02657
1521.50000    0.02197
1522.00000    0.01768
1522.50000    0.01355
1523.00000    0.00941
1523.50000    0.00508
1524.00000    0.00040
1524.50000   -0.00481
1525.00000   -0.01071
1525.50000   -0.01742
1526.00000   -0.02505
1526.50000   -0.03366
1527.00000   -0.04328
1527.50000   -0.05391
1528.00000   -0.06550
1528.50000   -0.07795
1529.00000   -0.09114
1529.50000   -0.10492
1530.00000   -0.11910
1530.50000   -0.13349
1531.00000   -0.14786
1531.50000   -0.16199
1532.00000   -0.17566
1532.50000   -0.18865
1533.00000   -0.20076
1533.50000   -0.21178
1534.00000   -0.22155
1534.50000   -0.22989
1535.00000   -0.23666
1535.50000   -0.24174
1536.00000   -0.24500
1536.50000   -0.24634
1537.00000   -0.24566
1537.50000   -0.24288
1538.00000   -0.23790
1538.50000   -0.23064
1539.00000   -0.22102
1539.50000   -0.20897
1540.00000   -0.19440
1540.50000   -0.17725
1541.00000   -0.15747
1541.50000   -0.13502
1542.00000   -0.10989
1542.50000   -0.08208
1543.00000   -0.05163
1543.50000   -0.01861
1544.00000    0.01685
1544.50000    0.05461
1545.00000    0.09447
1545.50000    0.13620
1546.00000    0.17955
1546.50000    0.22420
1547.00000    0.26985
1547.50000    0.31615
1548.00000    0.36277
1548.50000    0.40935
1549.00000    0.45557
1549.50000    0.50110
1550.00000    0.54564
1550.50000    0.58894
1551.00000    0.63075
1551.50000    0.67088
1552.00000    0.70919
1552.50000    0.74557
1553.00000    0.77995
1553.50000    0.81232
1554.00000    0.84270
1554.50000    0.87114
1555.00000    0.89776
1555.50000    0.92268
1556.00000    0.94608
1556.50000    0.96817
1557.00000    0.98917
1557.50000    1.00937
1558.00000    1.02905
1558.50000    1.04856
1559.00000    1.06825
1559.50000    1.08853
1560.00000    1.10981
1560.50000    1.13254
1561.00000    1.15720
1561.50000    1.18427
1562.00000    1.21425
1562.50000    1.24763
1563.00000    1.28491
1563.50000    1.32656
1564.00000    1.37301
1564.50000    1.42466
1565.00000    1.48186
1565.50000    1.54489
1566.00000    1.61395
1566.50000    1.68917
1567.00000    1.77058
1567.50000    1.85813
1568.00000    1.95168
1568.50000    2.05100
1569.00000    2.15578
1569.50000    2.26564
1570.00000    2.38011
1570.50000    2.49869
1571.00000    2.62082
1571.50000    2.74588
1572.00000    2.87326
1572.50000    3.00231
1573.00000    3.13238
1573.50000    3.26281
1574.00000    3.39294
1574.50000    3.52215
1575.00000    3.64981
1575.50000    3.77529
1576.00000    3.89801
1576.50000    4.01739
1577.00000    4.13286
1577.50000    4.24385
1578.00000    4.34983
1578.50000    4.45025
1579.00000    4.54459
1579.50000    4.63234
1580.00000    4.71298
1580.50000    4.78603
1581.00000    4.85101
1581.50000    4.90748
1582.00000    4.95503
1582.50000    4.99328
1583.00000    5.02190
1583.50000    5.04061
1584.00000    5.04920
1584.50000    5.04750
1585.00000    5.03544
1585.50000    5.01302
1586.00000    4.98030
1586.50000    4.93742
1587.00000    4.88463
1587.50000    4.82223
1588.00000    4.75060
1588.50000    4.67019
1589.00000    4.58154
1589.50000    4.48520
1590.00000    4.38181
1590.50000    4.27204
1591.00000    4.15658
1591.50000    4.03616
1592.00000    3.91152
1592.50000    3.78340
1593.00000    3.65254
1593.50000    3.51968
1594.00000    3.38553
1594.50000    3.25078
1595.00000    3.11610
1595.50000    2.98211
1596.00000    2.84939
1596.50000    2.71848
1597.00000    2.58988
1597.50000    2.46404
1598.00000    2.34134
1598.50000    2.22212
1599.00000    2.10668
1599.50000    1.99524
1600.00000    1.88801
1600.50000    1.78511
1601.00000    1.68665
1601.50000    1.59268
1602.00000    1.50321
1602.50000    1.41822
1603.00000    1.33766
1603.50000    1.26144
1604.00000    1.18945
1604.50000    1.12156
1605.00000    1.05761
1605.50000    0.99743
1606.00000    0.94081
1606.50000    0.88757
1607.00000    0.83747
1607.50000    0.79029
1608.00000    0.74582
1608.50000    0.70381
1609.00000    0.66405
1609.50000    0.62632
1610.00000    0.59041
1610.50000    0.55614
1611.00000    0.52334
1611.50000    0.49187
1612.00000    0.46161
1612.50000    0.43248
1613.00000    0.40442
1613.50000    0.37743
1614.00000    0.35150
1614.50000    0.32666
1615.00000    0.30298
1615.50000    0.28054
1616.00000    0.25941
1616.50000    0.23968
1617.00000    0.22145
1617.50000    0.20479
1618.00000    0.18975
1618.50000    0.17637
1619.00000    0.16465
1619.50000    0.15456
1620.00000    0.14604
1620.50000    0.13898
1621.00000    0.13325
1621.50000    0.12868
1622.00000    0.12509
1622.50000    0.12227
1623.00000    0.12001
1623.50000    0.11809
1624.00000    0.11632
1624.50000    0.11453
1625.00000    0.11255
1625.50000    0.11028
1626.00000    0.10763
1626.50000    0.10456
1627.00000    0.10109
1627.50000    0.09725
1628.00000    0.09311
1628.50000    0.08877
1629.00000    0.08436
1629.50000    0.07998
1630.00000    0.07578
1630.50000    0.07186
1631.00000    0.06831
1631.50000    0.06520
1632.00000    0.06256
1632.50000    0.06039
1633.00000    0.05864
1633.50000    0.05722
1634.00000    0.05601
1634.50000    0.05487
1635.00000    0.05363
1635.50000    0.05211
1636.00000    0.05012
1636.50000    0.04750
1637.00000    0.04409
1637.50000    0.03976
1638.00000    0.03442
1638.50000    0.02803
1639.00000    0.02057
1639.50000    0.01209
1640.00000    0.00266
1640.50000   -0.00760
1641.00000   -0.01855
1641.50000   -0.02999
1642.00000   -0.04175
1642.50000   -0.05360
1643.00000   -0.06535
1643.50000   -0.07679
1644.00000   -0.08772
1644.50000   -0.09799
1645.00000   -0.10742
1645.50000   -0.11591
1646.00000   -0.12335
1646.50000   -0.12965
1647.00000   -0.13478
1647.50000   -0.13869
1648.00000   -0.14138
1648.50000   -0.14283
1649.00000   -0.14307
1649.50000   -0.14211
1650.00000   -0.13998
1650.50000   -0.13672
1651.00000   -0.13238
1651.50000   -0.12701
1652.00000   -0.12068
1652.50000   -0.11347
1653.00000   -0.10550
1653.50000   -0.09686
1654.00000   -0.08771
1654.50000   -0.07821
1655.00000   -0.06853
1655.50000   -0.05887
1656.00000   -0.04944
1656.50000   -0.04046
1657.00000   -0.03215
1657.50000   -0.02473
1658.00000   -0.01838
1658.50000   -0.01330
1659.00000   -0.00963
1659.50000   -0.00747
1660.00000   -0.00689
1660.50000   -0.00790
1661.00000   -0.01047
1661.50000   -0.01452
1662.00000   -0.01990
1662.50000   -0.02645
1663.00000   -0.03396
1663.50000   -0.04218
1664.00000   -0.05087
1664.50000   -0.05974
1665.00000   -0.06853
1665.50000   -0.07699
1666.00000   -0.08488
1666.50000   -0.09198
1667.00000   -0.09810
1667.50000   -0.10309
1668.00000   -0.10685
1668.50000   -0.10930
1669.00000   -0.11039
1669.50000   -0.11012
1670.00000   -0.10850
1670.50000   -0.10557
1671.00000   -0.10140
1671.50000   -0.09605
1672.00000   -0.08961
1672.50000   -0.08215
1673.00000   -0.07377
1673.50000   -0.06453
1674.00000   -0.05454
1674.50000   -0.04385
1675.00000   -0.03256
1675.50000   -0.02075
1676.00000   -0.00850
1676.50000    0.00411
1677.00000    0.01696
1677.50000    0.02997
1678.00000    0.04301
1678.50000    0.05598
1679.00000    0.06874
1679.50000    0.08118
1680.00000    0.09316
1680.50000    0.10457
1681.00000    0.11529
1681.50000    0.12521
1682.00000    0.13424
1682.50000    0.14230
1683.00000    0.14934
1683.50000    0.15530
1684.00000    0.16017
1684.50000    0.16394
1685.00000    0.16659
1685.50000    0.16814
1686.00000    0.16859
1686.50000    0.16795
1687.00000    0.16623
1687.50000    0.16340
1688.00000    0.15947
1688.50000    0.15440
1689.00000    0.14816
1689.50000    0.14071
1690.00000    0.13200
1690.50000    0.12200
1691.00000    0.11069
1691.50000    0.09805
1692.00000    0.08411
1692.50000    0.06892
1693.00000    0.05257
1693.50000    0.03519
1694.00000    0.01696
1694.50000   -0.00190
1695.00000   -0.02112
1695.50000   -0.04041
1696.00000   -0.05941
1696.50000   -0.07779
1697.00000   -0.09517
1697.50000   -0.11120
1698.00000   -0.12553
1698.50000   -0.13786
1699.00000   -0.14790
1699.50000   -0.15545
1700.00000   -0.16034
1700.50000   -0.16248
1701.00000   -0.16184
1701.50000   -0.15846
1702.00000   -0.15244
1702.50000   -0.14393
1703.00000   -0.13314
1703.50000   -0.12031
1704.00000   -0.10571
1704.50000   -0.08962
1705.00000   -0.07231
1705.50000   -0.05407
1706.00000   -0.03515
1706.50000   -0.01579
1707.00000    0.00381
1707.50000    0.02349
1708.00000    0.04310
1708.50000    0.06255
1709.00000    0.08176
1709.50000    0.10070
1710.00000    0.11934
1710.50000    0.13767
1711.00000    0.15569
1711.50000    0.17339
1712.00000    0.19078
1712.50000    0.20785
1713.00000    0.22458
1713.50000    0.24094
1714.00000    0.25690
1714.50000    0.27240
1715.00000    0.28740
1715.50000    0.30182
1716.00000    0.31562
1716.50000    0.32872
1717.00000    0.34106
1717.50000    0.35257
1718.00000    0.36320
1718.50000    0.37289
1719.00000    0.38157
1719.50000    0.38921
1720.00000    0.39573
1720.50000    0.40110
1721.00000    0.40524
1721.50000    0.40811
1722.00000    0.40963
1722.50000    0.40974
1723.00000    0.40839
1723.50000    0.40550
1724.00000    0.40102
1724.50000    0.39490
1725.00000    0.38709
1725.50000    0.37757
1726.00000    0.36632
1726.50000    0.35337
1727.00000    0.33874
1727.50000    0.32248
1728.00000    0.30468
1728.50000    0.28541
1729.00000    0.26480
1729.50000    0.24297
1730.00000    0.22005
1730.50000    0.19620
1731.00000    0.17155
1731.50000    0.14627
1732.00000    0.12049
1732.50000    0.09436
1733.00000    0.06802
1733.50000    0.04162
1734.00000    0.01530
1734.50000   -0.01081
1735.00000   -0.03655
1735.50000   -0.06175
1736.00000   -0.08626
1736.50000   -0.10988
1737.00000   -0.13240
1737.50000   -0.15359
1738.00000   -0.17322
1738.50000   -0.19102
1739.00000   -0.20672
1739.50000   -0.22007
1740.00000   -0.23079
1740.50000   -0.23863
1741.00000   -0.24337
1741.50000   -0.24484
1742.00000   -0.24288
1742.50000   -0.23742
1743.00000   -0.22844
1743.50000   -0.21600
1744.00000   -0.20021
1744.50000   -0.18129
1745.00000   -0.15951
1745.50000   -0.13522
1746.00000   -0.10884
1746.50000   -0.08083
1747.00000   -0.05171
1747.50000   -0.02201
1748.00000    0.00770
1748.50000    0.03687
1749.00000    0.06494
1749.50000    0.09139
1750.00000    0.11574
1750.50000    0.13756
1751.00000    0.15648
1751.50000    0.17221
1752.00000    0.18451
1752.50000    0.19326
1753.00000    0.19838
1753.50000    0.19989
1754.00000    0.19788
1754.50000    0.19251
1755.00000    0.18401
1755.50000    0.17266
1756.00000    0.15880
1756.50000    0.14278
1757.00000    0.12503
1757.50000    0.10595
1758.00000    0.08599
1758.50000    0.06558
1759.00000    0.04515
1759.50000    0.02511
1760.00000    0.00585
1760.50000   -0.01227
1761.00000   -0.02896
1761.50000   -0.04393
1762.00000   -0.05696
1762.50000   -0.06790
1763.00000   -0.07664
1763.50000   -0.08312
1764.00000   -0.08734
1764.50000   -0.08936
1765.00000   -0.08930
1765.50000   -0.08730
1766.00000   -0.08354
1766.50000   -0.07827
1767.00000   -0.07171
1767.50000   -0.06412
1768.00000   -0.05578
1768.50000   -0.04693
1769.00000   -0.03784
1769.50000   -0.02874
1770.00000   -0.01983
1770.50000   -0.01130
1771.00000   -0.00329
1771.50000    0.00409
1772.00000    0.01075
1772.50000    0.01667
1773.00000    0.02184
1773.50000    0.02627
1774.00000    0.03002
1774.50000    0.03316
1775.00000    0.03578
1775.50000    0.03798
1776.00000    0.03986
1776.50000    0.04152
1777.00000    0.04308
1777.50000    0.04461
1778.00000    0.04622
1778.50000    0.04797
1779.00000    0.04993
1779.50000    0.05215
1780.00000    0.05467
1780.50000    0.05753
1781.00000    0.06077
1781.50000    0.06441
1782.00000    0.06849
1782.50000    0.07304
1783.00000    0.07810
1783.50000    0.08371
1784.00000    0.08992
1784.50000    0.09679
1785.00000    0.10437
1785.50000    0.11270
1786.00000    0.12184
1786.50000    0.13181
1787.00000    0.14265
1787.50000    0.15434
1788.00000    0.16688
1788.50000    0.18023
1789.00000    0.19430
1789.50000    0.20901
1790.00000    0.22422
1790.50000    0.23980
1791.00000    0.25556
1791.50000    0.27133
1792.00000    0.28691
1792.50000    0.30210
1793.00000    0.31671
1793.50000    0.33054
1794.00000    0.34343
1794.50000    0.35524
1795.00000    0.36585
1795.50000    0.37516
1796.00000    0.38311
1796.50000    0.38968
1797.00000    0.39486
1797.50000    0.39866
1798.00000    0.40110
1798.50000    0.40223
1799.00000    0.40206
1799.50000    0.40064
1800.00000    0.39796
1800.50000    0.39403
1801.00000    0.38880
1801.50000    0.38222
1802.00000    0.37421
1802.50000    0.36467
1803.00000    0.35348
1803.50000    0.34052
1804.00000    0.32564
1804.50000    0.30876
1805.00000    0.28976
1805.50000    0.26860
1806.00000    0.24527
1806.50000    0.21980
1807.00000    0.19231
1807.50000    0.16297
1808.00000    0.13203
1808.50000    0.09980
1809.00000    0.06666
1809.50000    0.03305
1810.00000   -0.00055
1810.50000   -0.03363
1811.00000   -0.06566
1811.50000   -0.09610
1812.00000   -0.12446
1812.50000   -0.15026
1813.00000   -0.17306
1813.50000   -0.19253
1814.00000   -0.20836
1814.50000   -0.22038
1815.00000   -0.22846
1815.50000   -0.23260
1816.00000   -0.23287
1816.50000   -0.22942
1817.00000   -0.22250
1817.50000   -0.21240
1818.00000   -0.19947
1818.50000   -0.18412
1819.00000   -0.16676
1819.50000   -0.14782
1820.00000   -0.12772
1820.50000   -0.10687
1821.00000   -0.08564
1821.50000   -0.06436
1822.00000   -0.04332
1822.50000   -0.02274
1823.00000   -0.00280
1823.50000    0.01640
1824.00000    0.03480
1824.50000    0.05241
1825.00000    0.06927
1825.50000    0.08546
1826.00000    0.10112
1826.50000    0.11638
1827.00000    0.13138
1827.50000    0.14629
1828.00000    0.16124
1828.50000    0.17636
1829.00000    0.19174
1829.50000    0.20745
1830.00000    0.22350
1830.50000    0.23989
1831.00000    0.25653
1831.50000    0.27333
1832.00000    0.29013
1832.50000    0.30674
1833.00000    0.32294
1833.50000    0.33848
1834.00000    0.35308
1834.50000    0.36649
1835.00000    0.37841
1835.50000    0.38859
1836.00000    0.39678
1836.50000    0.40277
1837.00000    0.40640
1837.50000    0.40752
1838.00000    0.40607
1838.50000    0.40202
1839.00000    0.39541
1839.50000    0.38632
1840.00000    0.37490
1840.50000    0.36134
1841.00000    0.34586
1841.50000    0.32872
1842.00000    0.31023
1842.50000    0.29068
1843.00000    0.27038
1843.50000    0.24965
1844.00000    0.22878
1844.50000    0.20807
1845.00000    0.18776
1845.50000    0.16811
1846.00000    0.14932
1846.50000    0.13156
1847.00000    0.11500
1847.50000    0.09973
1848.00000    0.08586
1848.50000    0.07345
1849.00000    0.06254
1849.50000    0.05315
1850.00000    0.04529
1850.50000    0.03892
1851.00000    0.03402
1851.50000    0.03053
1852.00000    0.02838
1852.50000    0.02748
1853.00000    0.02771
1853.50000    0.02894
1854.00000    0.03103
1854.50000    0.03379
1855.00000    0.03703
1855.50000    0.04054
1856.00000    0.04408
1856.50000    0.04740
1857.00000    0.05024
1857.50000    0.05235
1858.00000    0.05346
1858.50000    0.05333
1859.00000    0.05172
1859.50000    0.04843
1860.00000    0.04329
1860.50000    0.03617
1861.00000    0.02698
1861.50000    0.01570
1862.00000    0.00234
1862.50000   -0.01302
1863.00000   -0.03025
1863.50000   -0.04915
1864.00000   -0.06948
1864.50000   -0.09097
1865.00000   -0.11330
1865.50000   -0.13609
1866.00000   -0.15899
1866.50000   -0.18161
1867.00000   -0.20355
1867.50000   -0.22443
1868.00000   -0.24390
1868.50000   -0.26162
1869.00000   -0.27729
1869.50000   -0.29066
1870.00000   -0.30153
1870.50000   -0.30975
1871.00000   -0.31523
1871.50000   -0.31794
1872.00000   -0.31790
1872.50000   -0.31520
1873.00000   -0.30998
1873.50000   -0.30241
1874.00000   -0.29271
1874.50000   -0.28113
1875.00000   -0.26794
1875.50000   -0.25343
1876.00000   -0.23789
1876.50000   -0.22159
1877.00000   -0.20480
1877.50000   -0.18776
1878.00000   -0.17069
1878.50000   -0.15378
1879.00000   -0.13718
1879.50000   -0.12100
1880.00000   -0.10531
1880.50000   -0.09015
1881.00000   -0.07554
1881.50000   -0.06147
1882.00000   -0.04788
1882.50000   -0.03473
1883.00000   -0.02195
1883.50000   -0.00948
1884.00000    0.00275
1884.50000    0.01480
1885.00000    0.02672
1885.50000    0.03855
1886.00000    0.05029
1886.50000    0.06196
1887.00000    0.07353
1887.50000    0.08498
1888.00000    0.09627
1888.50000    0.10735
1889.00000    0.11815
1889.50000    0.12863
1890.00000    0.13870
1890.50000    0.14833
1891.00000    0.15744
1891.50000    0.16600
1892.00000    0.17395
1892.50000    0.18126
1893.00000    0.18788
1893.50000    0.19376
1894.00000    0.19887
1894.50000    0.20315
1895.00000    0.20653
1895.50000    0.20897
1896.00000    0.21037
1896.50000    0.21065
1897.00000    0.20973
1897.50000    0.20753
1898.00000    0.20395
1898.50000    0.19894
1899.00000    0.19246
1899.50000    0.18447
1900.00000    0.17502
1900.50000    0.16416
1901.00000    0.15201
1901.50000    0.13874
1902.00000    0.12458
1902.50000    0.10981
1903.00000    0.09475
1903.50000    0.07978
1904.00000    0.06528
1904.50000    0.05168
1905.00000    0.03939
1905.50000    0.02879
1906.00000    0.02027
1906.50000    0.01410
1907.00000    0.01054
1907.50000    0.00972
1908.00000    0.01171
1908.50000    0.01645
1909.00000    0.02378
1909.50000    0.03344
1910.00000    0.04509
1910.50000    0.05830
1911.00000    0.07257
1911.50000    0.08737
1912.00000    0.10216
1912.50000    0.11638
1913.00000    0.12952
1913.50000    0.14113
1914.00000    0.15081
1914.50000    0.15827
1915.00000    0.16329
1915.50000    0.16579
1916.00000    0.16577
1916.50000    0.16334
1917.00000    0.15871
1917.50000    0.15216
1918.00000    0.14402
1918.50000    0.13470
1919.00000    0.12459
1919.50000    0.11410
1920.00000    0.10364
1920.50000    0.09355
1921.00000    0.08415
1921.50000    0.07567
1922.00000    0.06828
1922.50000    0.06209
1923.00000    0.05712
1923.50000    0.05333
1924.00000    0.05061
1924.50000    0.04879
1925.00000    0.04767
1925.50000    0.04703
1926.00000    0.04661
1926.50000    0.04616
1927.00000    0.04544
1927.50000    0.04422
1928.00000    0.04230
1928.50000    0.03950
1929.00000    0.03570
1929.50000    0.03078
1930.00000    0.02469
1930.50000    0.01740
1931.00000    0.00892
1931.50000   -0.00071
1932.00000   -0.01143
1932.50000   -0.02314
1933.00000   -0.03574
1933.50000   -0.04908
1934.00000   -0.06302
1934.50000   -0.07740
1935.00000   -0.09206
1935.50000   -0.10682
1936.00000   -0.12151
1936.50000   -0.13595
1937.00000   -0.14997
1937.50000   -0.16341
1938.00000   -0.17611
1938.50000   -0.18793
1939.00000   -0.19874
1939.50000   -0.20841
1940.00000   -0.21686
1940.50000   -0.22399
1941.00000   -0.22974
1941.50000   -0.23406
1942.00000   -0.23691
1942.50000   -0.23828
1943.00000   -0.23814
1943.50000   -0.23651
1944.00000   -0.23339
1944.50000   -0.22882
1945.00000   -0.22282
1945.50000   -0.21546
1946.00000   -0.20678
1946.50000   -0.19689
1947.00000   -0.18587
1947.50000   -0.17385
1948.00000   -0.16097
1948.50000   -0.14740
1949.00000   -0.13334
1949.50000   -0.11899
1950.00000   -0.10459
1950.50000   -0.09038
1951.00000   -0.07661
1951.50000   -0.06352
1952.00000   -0.05136
1952.50000   -0.04033
1953.00000   -0.03063
1953.50000   -0.02239
1954.00000   -0.01573
1954.50000   -0.01068
1955.00000   -0.00725
1955.50000   -0.00536
1956.00000   -0.00490
1956.50000   -0.00570
1957.00000   -0.00754
1957.50000   -0.01015
1958.00000   -0.01327
1958.50000   -0.01660
1959.00000   -0.01983
1959.50000   -0.02268
1960.00000   -0.02488
1960.50000   -0.02620
1961.00000   -0.02644
1961.50000   -0.02546
1962.00000   -0.02317
1962.50000   -0.01952
1963.00000   -0.01453
1963.50000   -0.00826
1964.00000   -0.00081
1964.50000    0.00767
1965.00000    0.01699
1965.50000    0.02697
1966.00000    0.03738
1966.50000    0.04800
1967.00000    0.05861
1967.50000    0.06901
1968.00000    0.07897
1968.50000    0.08833
1969.00000    0.09693
1969.50000    0.10461
1970.00000    0.11128
1970.50000    0.11683
1971.00000    0.12122
1971.50000    0.12439
1972.00000    0.12635
1972.50000    0.12710
1973.00000    0.12666
1973.50000    0.12510
1974.00000    0.12248
1974.50000    0.11887
1975.00000    0.11436
1975.50000    0.10905
1976.00000    0.10302
1976.50000    0.09638
1977.00000    0.08920
1977.50000    0.08157
1978.00000    0.07354
1978.50000    0.06518
1979.00000    0.05651
1979.50000    0.04758
1980.00000    0.03839
1980.50000    0.02897
1981.00000    0.01930
1981.50000    0.00941
1982.00000   -0.00070
1982.50000   -0.01098
1983.00000   -0.02139
1983.50000   -0.03186
1984.00000   -0.04230
1984.50000   -0.05258
1985.00000   -0.06255
1985.50000   -0.07203
1986.00000   -0.08083
1986.50000   -0.08874
1987.00000   -0.09555
1987.50000   -0.10104
1988.00000   -0.10501
1988.50000   -0.10729
1989.00000   -0.10772
1989.50000   -0.10621
1990.00000   -0.10268
1990.50000   -0.09715
1991.00000   -0.08964
1991.50000   -0.08026
1992.00000   -0.06916
1992.50000   -0.05654
1993.00000   -0.04263
1993.50000   -0.02770
1994.00000   -0.01203
1994.50000    0.00405
1995.00000    0.02025
1995.50000    0.03627
1996.00000    0.05180
1996.50000    0.06659
1997.00000    0.08038
1997.50000    0.09295
1998.00000    0.10413
1998.50000    0.11377
1999.00000    0.12174
1999.50000    0.12797
2000.00000    0.13241
2000.50000    0.13503
2001.00000    0.13584
2001.50000    0.13488
2002.00000    0.13220
2002.50000    0.12790
2003.00000    0.12208
2003.50000    0.11487
2004.00000    0.10642
2004.50000    0.09691
2005.00000    0.08653
2005.50000    0.07548
2006.00000    0.06400
2006.50000    0.05233
2007.00000    0.04070
2007.50000    0.02937
2008.00000    0.01858
2008.50000    0.00858
2009.00000   -0.00043
2009.50000   -0.00823
2010.00000   -0.01467
2010.50000   -0.01960
2011.00000   -0.02296
2011.50000   -0.02468
2012.00000   -0.02477
2012.50000   -0.02329
2013.00000   -0.02034
2013.50000   -0.01607
2014.00000   -0.01066
2014.50000   -0.00434
2015.00000    0.00263
2015.50000    0.00998
2016.00000    0.01743
2016.50000    0.02470
2017.00000    0.03151
2017.50000    0.03760
2018.00000    0.04275
2018.50000    0.04676
2019.00000    0.04949
2019.50000    0.05082
2020.00000    0.05070
2020.50000    0.04912
2021.00000    0.04613
2021.50000    0.04181
2022.00000    0.03629
2022.50000    0.02973
2023.00000    0.02232
2023.50000    0.01428
2024.00000    0.00582
2024.50000   -0.00283
2025.00000   -0.01146
2025.50000   -0.01987
2026.00000   -0.02789
2026.50000   -0.03534
2027.00000   -0.04213
2027.50000   -0.04814
2028.00000   -0.05334
2028.50000   -0.05768
2029.00000   -0.06117
2029.50000   -0.06384
2030.00000   -0.06572
2030.50000   -0.06689
2031.00000   -0.06741
2031.50000   -0.06735
2032.00000   -0.06678
2032.50000   -0.06578
2033.00000   -0.06441
2033.50000   -0.06273
2034.00000   -0.06079
2034.50000   -0.05863
2035.00000   -0.05630
2035.50000   -0.05384
2036.00000   -0.05129
2036.50000   -0.04870
2037.00000   -0.04613
2037.50000   -0.04362
2038.00000   -0.04126
2038.50000   -0.03909
2039.00000   -0.03721
2039.50000   -0.03569
2040.00000   -0.03457
2040.50000   -0.03394
2041.00000   -0.03381
2041.50000   -0.03422
2042.00000   -0.03515
2042.50000   -0.03657
2043.00000   -0.03842
2043.50000   -0.04060
2044.00000   -0.04298
2044.50000   -0.04542
2045.00000   -0.04773
2045.50000   -0.04974
2046.00000   -0.05126
2046.50000   -0.05209
2047.00000   -0.05206
2047.50000   -0.05101
2048.00000   -0.04882
2048.50000   -0.04539
2049.00000   -0.04068
2049.50000   -0.03470
2050.00000   -0.02750
2050.50000   -0.01918
2051.00000   -0.00990
2051.50000    0.00016
2052.00000    0.01075
2052.50000    0.02162
2053.00000    0.03247
2053.50000    0.04301
2054.00000    0.05294
2054.50000    0.06196
2055.00000    0.06980
2055.50000    0.07620
2056.00000    0.08096
2056.50000    0.08390
2057.00000    0.08489
2057.50000    0.08386
2058.00000    0.08078
2058.50000    0.07568
2059.00000    0.06865
2059.50000    0.05982
2060.00000    0.04936
2060.50000    0.03752
2061.00000    0.02454
2061.50000    0.01072
2062.00000   -0.00363
2062.50000   -0.01817
2063.00000   -0.03257
2063.50000   -0.04649
2064.00000   -0.05962
2064.50000   -0.07165
2065.00000   -0.08231
2065.50000   -0.09136
2066.00000   -0.09862
2066.50000   -0.10393
2067.00000   -0.10721
2067.50000   -0.10841
2068.00000   -0.10755
2068.50000   -0.10470
2069.00000   -0.09998
2069.50000   -0.09354
2070.00000   -0.08558
2070.50000   -0.07633
2071.00000   -0.06604
2071.50000   -0.05497
2072.00000   -0.04336
2072.50000   -0.03148
2073.00000   -0.01956
2073.50000   -0.00780
2074.00000    0.00360
2074.50000    0.01449
2075.00000    0.02477
2075.50000    0.03435
2076.00000    0.04318
2076.50000    0.05126
2077.00000    0.05859
2077.50000    0.06520
2078.00000    0.07115
2078.50000    0.07649
2079.00000    0.08127
2079.50000    0.08554
2080.00000    0.08935
2080.50000    0.09271
2081.00000    0.09564
2081.50000    0.09811
2082.00000    0.10008
2082.50000    0.10150
2083.00000    0.10229
2083.50000    0.10236
2084.00000    0.10161
2084.50000    0.09993
2085.00000    0.09722
2085.50000    0.09337
2086.00000    0.08832
2086.50000    0.08200
2087.00000    0.07437
2087.50000    0.06543
2088.00000    0.05521
2088.50000    0.04377
2089.00000    0.03122
2089.50000    0.01769
2090.00000    0.00336
2090.50000   -0.01156
2091.00000   -0.02684
2091.50000   -0.04221
2092.00000   -0.05741
2092.50000   -0.07215
2093.00000   -0.08613
2093.50000   -0.09908
2094.00000   -0.11073
2094.50000   -0.12085
2095.00000   -0.12920
2095.50000   -0.13561
2096.00000   -0.13993
2096.50000   -0.14206
2097.00000   -0.14195
2097.50000   -0.13959
2098.00000   -0.13501
2098.50000   -0.12829
2099.00000   -0.11954
2099.50000   -0.10893
2100.00000   -0.09662
2100.50000   -0.08283
2101.00000   -0.06778
2101.50000   -0.05169
2102.00000   -0.03481
2102.50000   -0.01737
2103.00000    0.00040
2103.50000    0.01828
2104.00000    0.03608
2104.50000    0.05359
2105.00000    0.07065
2105.50000    0.08710
2106.00000    0.10282
2106.50000    0.11768
2107.00000    0.13158
2107.50000    0.14443
2108.00000    0.15617
2108.50000    0.16672
2109.00000    0.17603
2109.50000    0.18405
2110.00000    0.19076
2110.50000    0.19610
2111.00000    0.20006
2111.50000    0.20261
2112.00000    0.20374
2112.50000    0.20343
2113.00000    0.20166
2113.50000    0.19845
2114.00000    0.19378
2114.50000    0.18768
2115.00000    0.18014
2115.50000    0.17120
2116.00000    0.16088
2116.50000    0.14922
2117.00000    0.13626
2117.50000    0.12207
2118.00000    0.10670
2118.50000    0.09023
2119.00000    0.07274
2119.50000    0.05434
2120.00000    0.03513
2120.50000    0.01524
2121.00000   -0.00521
2121.50000   -0.02607
2122.00000   -0.04718
2122.50000   -0.06838
2123.00000   -0.08951
2123.50000   -0.11038
2124.00000   -0.13081
2124.50000   -0.15061
2125.00000   -0.16958
2125.50000   -0.18754
2126.00000   -0.20429
2126.50000   -0.21963
2127.00000   -0.23338
2127.50000   -0.24533
2128.00000   -0.25530
2128.50000   -0.26312
2129.00000   -0.26859
2129.50000   -0.27156
2130.00000   -0.27187
2130.50000   -0.26937
2131.00000   -0.26394
2131.50000   -0.25548
2132.00000   -0.24392
2132.50000   -0.22920
2133.00000   -0.21132
2133.50000   -0.19032
2134.00000   -0.16629
2134.50000   -0.13935
2135.00000   -0.10969
2135.50000   -0.07756
2136.00000   -0.04324
2136.50000   -0.00709
2137.00000    0.03051
2137.50000    0.06913
2138.00000    0.10829
2138.50000    0.14752
2139.00000    0.18632
2139.50000    0.22419
2140.00000    0.26065
2140.50000    0.29526
2141.00000    0.32760
2141.50000    0.35731
2142.00000    0.38408
2142.50000    0.40769
2143.00000    0.42794
2143.50000    0.44476
2144.00000    0.45811
2144.50000    0.46803
2145.00000    0.47462
2145.50000    0.47802
2146.00000    0.47843
2146.50000    0.47606
2147.00000    0.47118
2147.50000    0.46403
2148.00000    0.45490
2148.50000    0.44404
2149.00000    0.43172
2149.50000    0.41818
2150.00000    0.40365
2150.50000    0.38835
2151.00000    0.37249
2151.50000    0.35624
2152.00000    0.33978
2152.50000    0.32327
2153.00000    0.30686
2153.50000    0.29070
2154.00000    0.27491
2154.50000    0.25961
2155.00000    0.24492
2155.50000    0.23093
2156.00000    0.21772
2156.50000    0.20536
2157.00000    0.19386
2157.50000    0.18325
2158.00000    0.17350
2158.50000    0.16456
2159.00000    0.15635
2159.50000    0.14875
2160.00000    0.14164
2160.50000    0.13485
2161.00000    0.12822
2161.50000    0.12157
2162.00000    0.11475
2162.50000    0.10759
2163.00000    0.09995
2163.50000    0.09175
2164.00000    0.08292
2164.50000    0.07342
2165.00000    0.06329
2165.50000    0.05260
2166.00000    0.04146
2166.50000    0.03003
2167.00000    0.01852
2167.50000    0.00714
2168.00000   -0.00385
2168.50000   -0.01420
2169.00000   -0.02364
2169.50000   -0.03193
2170.00000   -0.03882
2170.50000   -0.04410
2171.00000   -0.04759
2171.50000   -0.04915
2172.00000   -0.04868
2172.50000   -0.04610
2173.00000   -0.04140
2173.50000   -0.03458
2174.00000   -0.02571
2174.50000   -0.01485
2175.00000   -0.00212
2175.50000    0.01234
2176.00000    0.02839
2176.50000    0.04584
2177.00000    0.06451
2177.50000    0.08420
2178.00000    0.10469
2178.50000    0.12576
2179.00000    0.14719
2179.50000    0.16871
2180.00000    0.19008
2180.50000    0.21102
2181.00000    0.23127
2181.50000    0.25055
2182.00000    0.26856
2182.50000    0.28503
2183.00000    0.29968
2183.50000    0.31225
2184.00000    0.32247
2184.50000    0.33014
2185.00000    0.33505
2185.50000    0.33705
2186.00000    0.33603
2186.50000    0.33192
2187.00000    0.32472
2187.50000    0.31447
2188.00000    0.30127
2188.50000    0.28529
2189.00000    0.26672
2189.50000    0.24582
2190.00000    0.22291
2190.50000    0.19830
2191.00000    0.17236
2191.50000    0.14546
2192.00000    0.11799
2192.50000    0.09032
2193.00000    0.06283
2193.50000    0.03585
2194.00000    0.00969
2194.50000   -0.01535
2195.00000   -0.03905
2195.50000   -0.06121
2196.00000   -0.08167
2196.50000   -0.10033
2197.00000   -0.11711
2197.50000   -0.13199
2198.00000   -0.14497
2198.50000   -0.15608
2199.00000   -0.16536
2199.50000   -0.17288
2200.00000   -0.17871
2200.50000   -0.18293
2201.00000   -0.18562
2201.50000   -0.18686
2202.00000   -0.18670
2202.50000   -0.18524
2203.00000   -0.18253
2203.50000   -0.17864
2204.00000   -0.17365
2204.50000   -0.16764
2205.00000   -0.16070
2205.50000   -0.15293
2206.00000   -0.14447
2206.50000   -0.13544
2207.00000   -0.12601
2207.50000   -0.11634
2208.00000   -0.10661
2208.50000   -0.09701
2209.00000   -0.08774
2209.50000   -0.07895
2210.00000   -0.07083
2210.50000   -0.06350
2211.00000   -0.05708
2211.50000   -0.05164
2212.00000   -0.04723
2212.50000   -0.04383
2213.00000   -0.04140
2213.50000   -0.03985
2214.00000   -0.03906
2214.50000   -0.03888
2215.00000   -0.03913
2215.50000   -0.03961
2216.00000   -0.04014
2216.50000   -0.04051
2217.00000   -0.04054
2217.50000   -0.04008
2218.00000   -0.03898
2218.50000   -0.03712
2219.00000   -0.03444
2219.50000   -0.03088
2220.00000   -0.02643
2220.50000   -0.02110
2221.00000   -0.01493
2221.50000   -0.00797
2222.00000   -0.00030
2222.50000    0.00799
2223.00000    0.01682
2223.50000    0.02608
2224.00000    0.03568
2224.50000    0.04550
2225.00000    0.05546
2225.50000    0.06544
2226.00000    0.07533
2226.50000    0.08502
2227.00000    0.09438
2227.50000    0.10330
2228.00000    0.11165
2228.50000    0.11928
2229.00000    0.12605
2229.50000    0.13184
2230.00000    0.13652
2230.50000    0.13995
2231.00000    0.14205
2231.50000    0.14273
2232.00000    0.14195
2232.50000    0.13968
2233.00000    0.13597
2233.50000    0.13086
2234.00000    0.12447
2234.50000    0.11695
2235.00000    0.10848
2235.50000    0.09929
2236.00000    0.08962
2236.50000    0.07975
2237.00000    0.06994
2237.50000    0.06049
2238.00000    0.05166
2238.50000    0.04372
2239.00000    0.03689
2239.50000    0.03136
2240.00000    0.02731
2240.50000    0.02482
2241.00000    0.02398
2241.50000    0.02478
2242.00000    0.02719
2242.50000    0.03112
2243.00000    0.03644
2243.50000    0.04296
2244.00000    0.05049
2244.50000    0.05876
2245.00000    0.06751
2245.50000    0.07647
2246.00000    0.08534
2246.50000    0.09383
2247.00000    0.10165
2247.50000    0.10854
2248.00000    0.11423
2248.50000    0.11850
2249.00000    0.12116
2249.50000    0.12205
2250.00000    0.12105
2250.50000    0.11808
2251.00000    0.11310
2251.50000    0.10613
2252.00000    0.09721
2252.50000    0.08643
2253.00000    0.07394
2253.50000    0.05989
2254.00000    0.04449
2254.50000    0.02796
2255.00000    0.01056
2255.50000   -0.00744
2256.00000   -0.02578
2256.50000   -0.04417
2257.00000   -0.06232
2257.50000   -0.07997
2258.00000   -0.09683
2258.50000   -0.11267
2259.00000   -0.12724
2259.50000   -0.14034
2260.00000   -0.15177
2260.50000   -0.16138
2261.00000   -0.16903
2261.50000   -0.17461
2262.00000   -0.17805
2262.50000   -0.17930
2263.00000   -0.17836
2263.50000   -0.17525
2264.00000   -0.17002
2264.50000   -0.16275
2265.00000   -0.15357
2265.50000   -0.14264
2266.00000   -0.13012
2266.50000   -0.11624
2267.00000   -0.10124
2267.50000   -0.08538
2268.00000   -0.06895
2268.50000   -0.05224
2269.00000   -0.03557
2269.50000   -0.01925
2270.00000   -0.00358
2270.50000    0.01114
2271.00000    0.02464
2271.50000    0.03666
2272.00000    0.04699
2272.50000    0.05547
2273.00000    0.06195
2273.50000    0.06637
2274.00000    0.06869
2274.50000    0.06893
2275.00000    0.06718
2275.50000    0.06355
2276.00000    0.05820
2276.50000    0.05134
2277.00000    0.04317
2277.50000    0.03397
2278.00000    0.02397
2278.50000    0.01345
2279.00000    0.00267
2279.50000   -0.00812
2280.00000   -0.01869
2280.50000   -0.02882
2281.00000   -0.03833
2281.50000   -0.04703
2282.00000   -0.05480
2282.50000   -0.06151
2283.00000   -0.06708
2283.50000   -0.07142
2284.00000   -0.07449
2284.50000   -0.07626
2285.00000   -0.07670
2285.50000   -0.07581
2286.00000   -0.07359
2286.50000   -0.07007
2287.00000   -0.06529
2287.50000   -0.05929
2288.00000   -0.05214
2288.50000   -0.04394
2289.00000   -0.03479
2289.50000   -0.02482
2290.00000   -0.01418
2290.50000   -0.00305
2291.00000    0.00839
2291.50000    0.01992
2292.00000    0.03134
2292.50000    0.04241
2293.00000    0.05292
2293.50000    0.06265
2294.00000    0.07139
2294.50000    0.07898
2295.00000    0.08525
2295.50000    0.09008
2296.00000    0.09338
2296.50000    0.09511
2297.00000    0.09524
2297.50000    0.09380
2298.00000    0.09085
2298.50000    0.08647
2299.00000    0.08079
2299.50000    0.07392
2300.00000    0.06602
2300.50000    0.05726
2301.00000    0.04779
2301.50000    0.03777
2302.00000    0.02737
2302.50000    0.01674
2303.00000    0.00603
2303.50000   -0.00462
2304.00000   -0.01508
2304.50000   -0.02522
2305.00000   -0.03493
2305.50000   -0.04408
2306.00000   -0.05258
2306.50000   -0.06033
2307.00000   -0.06723
2307.50000   -0.07320
2308.00000   -0.07818
2308.50000   -0.08210
2309.00000   -0.08495
2309.50000   -0.08671
2310.00000   -0.08739
2310.50000   -0.08704
2311.00000   -0.08571
2311.50000   -0.08352
2312.00000   -0.08057
2312.50000   -0.07701
2313.00000   -0.07299
2313.50000   -0.06867
2314.00000   -0.06420
2314.50000   -0.05973
2315.00000   -0.05538
2315.50000   -0.05125
2316.00000   -0.04741
2316.50000   -0.04385
2317.00000   -0.04057
2317.50000   -0.03747
2318.00000   -0.03445
2318.50000   -0.03134
2319.00000   -0.02793
2319.50000   -0.02402
2320.00000   -0.01937
2320.50000   -0.01374
2321.00000   -0.00692
2321.50000    0.00131
2322.00000    0.01108
2322.50000    0.02253
2323.00000    0.03569
2323.50000    0.05057
2324.00000    0.06709
2324.50000    0.08511
2325.00000    0.10443
2325.50000    0.12480
2326.00000    0.14592
2326.50000    0.16744
2327.00000    0.18898
2327.50000    0.21019
2328.00000    0.23065
2328.50000    0.25002
2329.00000    0.26792
2329.50000    0.28405
2330.00000    0.29811
2330.50000    0.30986
2331.00000    0.31911
2331.50000    0.32571
2332.00000    0.32957
2332.50000    0.33063
2333.00000    0.32888
2333.50000    0.32435
2334.00000    0.31713
2334.50000    0.30730
2335.00000    0.29501
2335.50000    0.28042
2336.00000    0.26371
2336.50000    0.24509
2337.00000    0.22479
2337.50000    0.20305
2338.00000    0.18016
2338.50000    0.15637
2339.00000    0.13199
2339.50000    0.10733
2340.00000    0.08268
2340.50000    0.05838
2341.00000    0.03472
2341.50000    0.01203
2342.00000   -0.00940
2342.50000   -0.02930
2343.00000   -0.04740
2343.50000   -0.06347
2344.00000   -0.07732
2344.50000   -0.08879
2345.00000   -0.09776
2345.50000   -0.10415
2346.00000   -0.10795
2346.50000   -0.10916
2347.00000   -0.10785
2347.50000   -0.10411
2348.00000   -0.09811
2348.50000   -0.09001
2349.00000   -0.08005
2349.50000   -0.06846
2350.00000   -0.05552
2350.50000   -0.04151
2351.00000   -0.02676
2351.50000   -0.01156
2352.00000    0.00375
2352.50000    0.01888
2353.00000    0.03352
2353.50000    0.04739
2354.00000    0.06021
2354.50000    0.07177
2355.00000    0.08185
2355.50000    0.09031
2356.00000    0.09701
2356.50000    0.10188
2357.00000    0.10490
2357.50000    0.10606
2358.00000    0.10544
2358.50000    0.10310
2359.00000    0.09918
2359.50000    0.09383
2360.00000    0.08719
2360.50000    0.07946
2361.00000    0.07080
2361.50000    0.06137
2362.00000    0.05135
2362.50000    0.04086
2363.00000    0.03004
2363.50000    0.01897
2364.00000    0.00775
2364.50000   -0.00357
2365.00000   -0.01491
2365.50000   -0.02624
2366.00000   -0.03750
2366.50000   -0.04862
2367.00000   -0.05953
2367.50000   -0.07011
2368.00000   -0.08024
2368.50000   -0.08977
2369.00000   -0.09850
2369.50000   -0.10624
2370.00000   -0.11275
2370.50000   -0.11781
2371.00000   -0.12118
2371.50000   -0.12265
2372.00000   -0.12204
2372.50000   -0.11918
2373.00000   -0.11398
2373.50000   -0.10640
2374.00000   -0.09646
2374.50000   -0.08425
2375.00000   -0.06994
2375.50000   -0.05376
2376.00000   -0.03599
2376.50000   -0.01698
2377.00000    0.00289
2377.50000    0.02319
2378.00000    0.04351
2378.50000    0.06342
2379.00000    0.08250
2379.50000    0.10037
2380.00000    0.11668
2380.50000    0.13112
2381.00000    0.14345
2381.50000    0.15348
2382.00000    0.16109
2382.50000    0.16620
2383.00000    0.16880
2383.50000    0.16894
2384.00000    0.16670
2384.50000    0.16224
2385.00000    0.15571
2385.50000    0.14733
2386.00000    0.13731
2386.50000    0.12591
2387.00000    0.11338
2387.50000    0.09998
2388.00000    0.08596
2388.50000    0.07157
2389.00000    0.05706
2389.50000    0.04265
2390.00000    0.02854
2390.50000    0.01490
2391.00000    0.00189
2391.50000   -0.01038
2392.00000   -0.02182
2392.50000   -0.03238
2393.00000   -0.04204
2393.50000   -0.05081
2394.00000   -0.05872
2394.50000   -0.06582
2395.00000   -0.07220
2395.50000   -0.07792
2396.00000   -0.08305
2396.50000   -0.08767
2397.00000   -0.09181
2397.50000   -0.09552
2398.00000   -0.09878
2398.50000   -0.10157
2399.00000   -0.10384
2399.50000   -0.10548
2400.00000   -0.10641
2400.50000   -0.10648
2401.00000   -0.10557
2401.50000   -0.10356
2402.00000   -0.10033
2402.50000   -0.09580
2403.00000   -0.08993
2403.50000   -0.08272
2404.00000   -0.07425
2404.50000   -0.06462
2405.00000   -0.05402
2405.50000   -0.04269
2406.00000   -0.03092
2406.50000   -0.01904
2407.00000   -0.00740
2407.50000    0.00361
2408.00000    0.01365
2408.50000    0.02238
2409.00000    0.02949
2409.50000    0.03476
2410.00000    0.03803
2410.50000    0.03920
2411.00000    0.03827
2411.50000    0.03534
2412.00000    0.03058
2412.50000    0.02423
2413.00000    0.01660
2413.50000    0.00804
2414.00000   -0.00107
2414.50000   -0.01035
2415.00000   -0.01945
2415.50000   -0.02802
2416.00000   -0.03578
2416.50000   -0.04252
2417.00000   -0.04811
2417.50000   -0.05247
2418.00000   -0.05563
2418.50000   -0.05767
2419.00000   -0.05876
2419.50000   -0.05909
2420.00000   -0.05889
2420.50000   -0.05843
2421.00000   -0.05795
2421.50000   -0.05768
2422.00000   -0.05781
2422.50000   -0.05847
2423.00000   -0.05975
2423.50000   -0.06167
2424.00000   -0.06417
2424.50000   -0.06716
2425.00000   -0.07047
2425.50000   -0.07389
2426.00000   -0.07722
2426.50000   -0.08020
2427.00000   -0.08260
2427.50000   -0.08420
2428.00000   -0.08483
2428.50000   -0.08432
2429.00000   -0.08260
2429.50000   -0.07962
2430.00000   -0.07539
2430.50000   -0.06998
2431.00000   -0.06348
2431.50000   -0.05604
2432.00000   -0.04784
2432.50000   -0.03906
2433.00000   -0.02988
2433.50000   -0.02051
2434.00000   -0.01113
2434.50000   -0.00189
2435.00000    0.00706
2435.50000    0.01561
2436.00000    0.02365
2436.50000    0.03111
2437.00000    0.03794
2437.50000    0.04409
2438.00000    0.04954
2438.50000    0.05426
2439.00000    0.05825
2439.50000    0.06148
2440.00000    0.06395
2440.50000    0.06566
2441.00000    0.06660
2441.50000    0.06679
2442.00000    0.06623
2442.50000    0.06496
2443.00000    0.06303
2443.50000    0.06049
2444.00000    0.05742
2444.50000    0.05392
2445.00000    0.05010
2445.50000    0.04610
2446.00000    0.04204
2446.50000    0.03809
2447.00000    0.03439
2447.50000    0.03110
2448.00000    0.02835
2448.50000    0.02630
2449.00000    0.02507
2449.50000    0.02478
2450.00000    0.02554
2450.50000    0.02741
2451.00000    0.03048
2451.50000    0.03480
2452.00000    0.04040
2452.50000    0.04730
2453.00000    0.05551
2453.50000    0.06499
2454.00000    0.07573
2454.50000    0.08766
2455.00000    0.10070
2455.50000    0.11475
2456.00000    0.12969
2456.50000    0.14536
2457.00000    0.16160
2457.50000    0.17821
2458.00000    0.19497
2458.50000    0.21164
2459.00000    0.22799
2459.50000    0.24376
2460.00000    0.25870
2460.50000    0.27256
2461.00000    0.28511
2461.50000    0.29615
2462.00000    0.30547
2462.50000    0.31292
2463.00000    0.31838
2463.50000    0.32176
2464.00000    0.32299
2464.50000    0.32207
2465.00000    0.31900
2465.50000    0.31383
2466.00000    0.30663
2466.50000    0.29749
2467.00000    0.28653
2467.50000    0.27388
2468.00000    0.25969
2468.50000    0.24411
2469.00000    0.22731
2469.50000    0.20946
2470.00000    0.19074
2470.50000    0.17134
2471.00000    0.15145
2471.50000    0.13128
2472.00000    0.11102
2472.50000    0.09089
2473.00000    0.07110
2473.50000    0.05185
2474.00000    0.03337
2474.50000    0.01586
2475.00000   -0.00049
2475.50000   -0.01551
2476.00000   -0.02902
2476.50000   -0.04089
2477.00000   -0.05101
2477.50000   -0.05931
2478.00000   -0.06576
2478.50000   -0.07035
2479.00000   -0.07312
2479.50000   -0.07416
2480.00000   -0.07361
2480.50000   -0.07161
2481.00000   -0.06839
2481.50000   -0.06418
2482.00000   -0.05924
2482.50000   -0.05385
2483.00000   -0.04832
2483.50000   -0.04295
2484.00000   -0.03804
2484.50000   -0.03387
2485.00000   -0.03069
2485.50000   -0.02873
2486.00000   -0.02816
2486.50000   -0.02912
2487.00000   -0.03168
2487.50000   -0.03582
2488.00000   -0.04150
2488.50000   -0.04859
2489.00000   -0.05688
2489.50000   -0.06614
2490.00000   -0.07605
2490.50000   -0.08628
2491.00000   -0.09646
2491.50000   -0.10620
2492.00000   -0.11512
2492.50000   -0.12287
2493.00000   -0.12911
2493.50000   -0.13356
2494.00000   -0.13600
2494.50000   -0.13629
2495.00000   -0.13433
2495.50000   -0.13012
2496.00000   -0.12376
2496.50000   -0.11538
2497.00000   -0.10522
2497.50000   -0.09354
2498.00000   -0.08067
2498.50000   -0.06697
2499.00000   -0.05281
2499.50000   -0.03857
2500.00000   -0.02463
2500.50000   -0.01133
2501.00000    0.00101
2501.50000    0.01211
2502.00000    0.02173
2502.50000    0.02971
2503.00000    0.03591
2503.50000    0.04026
2504.00000    0.04273
2504.50000    0.04336
2505.00000    0.04221
2505.50000    0.03941
2506.00000    0.03509
2506.50000    0.02945
2507.00000    0.02270
2507.50000    0.01506
2508.00000    0.00679
2508.50000   -0.00184
2509.00000   -0.01055
2509.50000   -0.01905
2510.00000   -0.02708
2510.50000   -0.03434
2511.00000   -0.04058
2511.50000   -0.04553
2512.00000   -0.04898
2512.50000   -0.05075
2513.00000   -0.05067
2513.50000   -0.04865
2514.00000   -0.04464
2514.50000   -0.03864
2515.00000   -0.03072
2515.50000   -0.02101
2516.00000   -0.00970
2516.50000    0.00296
2517.00000    0.01668
2517.50000    0.03112
2518.00000    0.04590
2518.50000    0.06062
2519.00000    0.07488
2519.50000    0.08828
2520.00000    0.10043
2520.50000    0.11098
2521.00000    0.11962
2521.50000    0.12610
2522.00000    0.13022
2522.50000    0.13187
2523.00000    0.13099
2523.50000    0.12761
2524.00000    0.12185
2524.50000    0.11387
2525.00000    0.10393
2525.50000    0.09233
2526.00000    0.07943
2526.50000    0.06561
2527.00000    0.05130
2527.50000    0.03694
2528.00000    0.02297
2528.50000    0.00980
2529.00000   -0.00216
2529.50000   -0.01254
2530.00000   -0.02102
2530.50000   -0.02735
2531.00000   -0.03134
2531.50000   -0.03285
2532.00000   -0.03184
2532.50000   -0.02834
2533.00000   -0.02246
2533.50000   -0.01437
2534.00000   -0.00434
2534.50000    0.00732
2535.00000    0.02024
2535.50000    0.03402
2536.00000    0.04821
2536.50000    0.06238
2537.00000    0.07606
2537.50000    0.08885
2538.00000    0.10033
2538.50000    0.11016
2539.00000    0.11806
2539.50000    0.12380
2540.00000    0.12722
2540.50000    0.12827
2541.00000    0.12695
2541.50000    0.12334
2542.00000    0.11759
2542.50000    0.10992
2543.00000    0.10056
2543.50000    0.08981
2544.00000    0.07797
2544.50000    0.06535
2545.00000    0.05222
2545.50000    0.03887
2546.00000    0.02553
2546.50000    0.01237
2547.00000   -0.00046
2547.50000   -0.01287
2548.00000   -0.02482
2548.50000   -0.03632
2549.00000   -0.04740
2549.50000   -0.05813
2550.00000   -0.06861
2550.50000   -0.07891
2551.00000   -0.08912
2551.50000   -0.09931
2552.00000   -0.10952
2552.50000   -0.11977
2553.00000   -0.13003
2553.50000   -0.14024
2554.00000   -0.15031
2554.50000   -0.16010
2555.00000   -0.16947
2555.50000   -0.17823
2556.00000   -0.18618
2556.50000   -0.19314
2557.00000   -0.19890
2557.50000   -0.20329
2558.00000   -0.20613
2558.50000   -0.20729
2559.00000   -0.20666
2559.50000   -0.20416
2560.00000   -0.19973
2560.50000   -0.19338
2561.00000   -0.18511
2561.50000   -0.17500
2562.00000   -0.16312
2562.50000   -0.14960
2563.00000   -0.13457
2563.50000   -0.11820
2564.00000   -0.10068
2564.50000   -0.08221
2565.00000   -0.06301
2565.50000   -0.04331
2566.00000   -0.02335
2566.50000   -0.00338
2567.00000    0.01635
2567.50000    0.03559
2568.00000    0.05410
2568.50000    0.07165
2569.00000    0.08802
2569.50000    0.10302
2570.00000    0.11646
2570.50000    0.12821
2571.00000    0.13815
2571.50000    0.14620
2572.00000    0.15231
2572.50000    0.15649
2573.00000    0.15877
2573.50000    0.15920
2574.00000    0.15788
2574.50000    0.15494
2575.00000    0.15053
2575.50000    0.14480
2576.00000    0.13793
2576.50000    0.13011
2577.00000    0.12151
2577.50000    0.11233
2578.00000    0.10273
2578.50000    0.09289
2579.00000    0.08295
2579.50000    0.07307
2580.00000    0.06338
2580.50000    0.05399
2581.00000    0.04503
2581.50000    0.03659
2582.00000    0.02877
2582.50000    0.02167
2583.00000    0.01536
2583.50000    0.00993
2584.00000    0.00545
2584.50000    0.00199
2585.00000   -0.00039
2585.50000   -0.00166
2586.00000   -0.00178
2586.50000   -0.00075
2587.00000    0.00142
2587.50000    0.00468
2588.00000    0.00898
2588.50000    0.01419
2589.00000    0.02019
2589.50000    0.02682
2590.00000    0.03386
2590.50000    0.04112
2591.00000    0.04833
2591.50000    0.05525
2592.00000    0.06161
2592.50000    0.06716
2593.00000    0.07163
2593.50000    0.07482
2594.00000    0.07651
2594.50000    0.07656
2595.00000    0.07486
2595.50000    0.07137
2596.00000    0.06607
2596.50000    0.05906
2597.00000    0.05045
2597.50000    0.04044
2598.00000    0.02926
2598.50000    0.01719
2599.00000    0.00455
2599.50000   -0.00831
2600.00000   -0.02107
2600.50000   -0.03338
2601.00000   -0.04492
2601.50000   -0.05542
2602.00000   -0.06465
2602.50000   -0.07241
2603.00000   -0.07862
2603.50000   -0.08321
2604.00000   -0.08622
2604.50000   -0.08775
2605.00000   -0.08794
2605.50000   -0.08700
2606.00000   -0.08518
2606.50000   -0.08277
2607.00000   -0.08004
2607.50000   -0.07729
2608.00000   -0.07478
2608.50000   -0.07274
2609.00000   -0.07137
2609.50000   -0.07081
2610.00000   -0.07111
2610.50000   -0.07228
2611.00000   -0.07427
2611.50000   -0.07694
2612.00000   -0.08010
2612.50000   -0.08352
2613.00000   -0.08691
2613.50000   -0.08999
2614.00000   -0.09242
2614.50000   -0.09390
2615.00000   -0.09413
2615.50000   -0.09284
2616.00000   -0.08981
2616.50000   -0.08484
2617.00000   -0.07781
2617.50000   -0.06866
2618.00000   -0.05737
2618.50000   -0.04400
2619.00000   -0.02865
2619.50000   -0.01147
2620.00000    0.00734
2620.50000    0.02756
2621.00000    0.04895
2621.50000    0.07124
2622.00000    0.09418
2622.50000    0.11752
2623.00000    0.14102
2623.50000    0.16447
2624.00000    0.18769
2624.50000    0.21055
2625.00000    0.23292
2625.50000    0.25475
2626.00000    0.27600
2626.50000    0.29667
2627.00000    0.31680
2627.50000    0.33646
2628.00000    0.35571
2628.50000    0.37465
2629.00000    0.39338
2629.50000    0.41200
2630.00000    0.43060
2630.50000    0.44925
2631.00000    0.46802
2631.50000    0.48696
2632.00000    0.50610
2632.50000    0.52545
2633.00000    0.54503
2633.50000    0.56482
2634.00000    0.58483
2634.50000    0.60506
2635.00000    0.62553
2635.50000    0.64628
2636.00000    0.66737
2636.50000    0.68889
2637.00000    0.71097
2637.50000    0.73374
2638.00000    0.75739
2638.50000    0.78210
2639.00000    0.80808
2639.50000    0.83554
2640.00000    0.86467
2640.50000    0.89565
2641.00000    0.92864
2641.50000    0.96374
2642.00000    1.00102
2642.50000    1.04052
2643.00000    1.08220
2643.50000    1.12600
2644.00000    1.17184
2644.50000    1.21960
2645.00000    1.26914
2645.50000    1.32033
2646.00000    1.37306
2646.50000    1.42726
2647.00000    1.48286
2647.50000    1.53988
2648.00000    1.59836
2648.50000    1.65843
2649.00000    1.72023
2649.50000    1.78398
2650.00000    1.84992
2650.50000    1.91833
2651.00000    1.98950
2651.50000    2.06372
2652.00000    2.14128
2652.50000    2.22246
2653.00000    2.30748
2653.50000    2.39656
2654.00000    2.48987
2654.50000    2.58756
2655.00000    2.68974
2655.50000    2.79648
2656.00000    2.90786
2656.50000    3.02392
2657.00000    3.14470
2657.50000    3.27025
2658.00000    3.40060
2658.50000    3.53577
2659.00000    3.67581
2659.50000    3.82071
2660.00000    3.97049
2660.50000    4.12511
2661.00000    4.28450
2661.50000    4.44855
2662.00000    4.61708
2662.50000    4.78986
2663.00000    4.96659
2663.50000    5.14689
2664.00000    5.33034
2664.50000    5.51642
2665.00000    5.70461
2665.50000    5.89431
2666.00000    6.08491
2666.50000    6.27579
2667.00000    6.46633
2667.50000    6.65594
2668.00000    6.84403
2668.50000    7.03008
2669.00000    7.21358
2669.50000    7.39410
2670.00000    7.57122
2670.50000    7.74458
2671.00000    7.91385
2671.50000    8.07873
2672.00000    8.23895
2672.50000    8.39422
2673.00000    8.54429
2673.50000    8.68888
2674.00000    8.82770
2674.50000    8.96046
2675.00000    9.08684
2675.50000    9.20652
2676.00000    9.31915
2676.50000    9.42439
2677.00000    9.52189
2677.50000    9.61128
2678.00000    9.69224
2678.50000    9.76441
2679.00000    9.82749
2679.50000    9.88117
2680.00000    9.92518
2680.50000    9.95928
2681.00000    9.98324
2681.50000    9.99687
2682.00000   10.00000
2682.50000    9.99250
2683.00000    9.97427
2683.50000    9.94523
2684.00000    9.90534
2684.50000    9.85460
2685.00000    9.79303
2685.50000    9.72073
2686.00000    9.63779
2686.50000    9.54440
2687.00000    9.44077
2687.50000    9.32717
2688.00000    9.20394
2688.50000    9.07144
2689.00000    8.93014
2689.50000    8.78051
2690.00000    8.62311
2690.50000    8.45852
2691.00000    8.28738
2691.50000    8.11036
2692.00000    7.92815
2692.50000    7.74146
2693.00000    7.55099
2693.50000    7.35747
2694.00000    7.16158
2694.50000    6.96401
2695.00000    6.76539
2695.50000    6.56636
2696.00000    6.36747
2696.50000    6.16928
2697.00000    5.97227
2697.50000    5.77691
2698.00000    5.58362
2698.50000    5.39280
2699.00000    5.20482
2699.50000    5.02003
2700.00000    4.83877
2700.50000    4.66137
2701.00000    4.48816
2701.50000    4.31944
2702.00000    4.15553
2702.50000    3.99674
2703.00000    3.84333
2703.50000    3.69558
2704.00000    3.55370
2704.50000    3.41789
2705.00000    3.28826
2705.50000    3.16489
2706.00000    3.04777
2706.50000    2.93683
2707.00000    2.83191
2707.50000    2.73278
2708.00000    2.63913
2708.50000    2.55059
2709.00000    2.46673
2709.50000    2.38707
2710.00000    2.31112
2710.50000    2.23836
2711.00000    2.16828
2711.50000    2.10039
2712.00000    2.03424
2712.50000    1.96941
2713.00000    1.90555
2713.50000    1.84236
2714.00000    1.77962
2714.50000    1.71715
2715.00000    1.65488
2715.50000    1.59278
2716.00000    1.53086
2716.50000    1.46923
2717.00000    1.40800
2717.50000    1.34734
2718.00000    1.28747
2718.50000    1.22860
2719.00000    1.17098
2719.50000    1.11486
2720.00000    1.06051
2720.50000    1.00817
2721.00000    0.95811
2721.50000    0.91056
2722.00000    0.86574
2722.50000    0.82383
2723.00000    0.78499
2723.50000    0.74933
2724.00000    0.71694
2724.50000    0.68781
2725.00000    0.66193
2725.50000    0.63918
2726.00000    0.61940
2726.50000    0.60239
2727.00000    0.58785
2727.50000    0.57546
2728.00000    0.56485
2728.50000    0.55559
2729.00000    0.54725
2729.50000    0.53937
2730.00000    0.53149
2730.50000    0.52317
2731.00000    0.51398
2731.50000    0.50356
2732.00000    0.49156
2732.50000    0.47774
2733.00000    0.46188
2733.50000    0.44388
2734.00000    0.42369
2734.50000    0.40136
2735.00000    0.37701
2735.50000    0.35085
2736.00000    0.32313
2736.50000    0.29418
2737.00000    0.26437
2737.50000    0.23410
2738.00000    0.20379
2738.50000    0.17387
2739.00000    0.14474
2739.50000    0.11681
2740.00000    0.09043
2740.50000    0.06591
2741.00000    0.04352
2741.50000    0.02345
2742.00000    0.00584
2742.50000   -0.00922
2743.00000   -0.02171
2743.50000   -0.03168
2744.00000   -0.03920
2744.50000   -0.04440
2745.00000   -0.04746
2745.50000   -0.04855
2746.00000   -0.04789
2746.50000   -0.04569
2747.00000   -0.04220
2747.50000   -0.03762
2748.00000   -0.03219
2748.50000   -0.02611
2749.00000   -0.01959
2749.50000   -0.01282
2750.00000   -0.00596
2750.50000    0.00081
2751.00000    0.00736
2751.50000    0.01357
2752.00000    0.01932
2752.50000    0.02454
2753.00000    0.02916
2753.50000    0.03315
2754.00000    0.03649
2754.50000    0.03919
2755.00000    0.04128
2755.50000    0.04283
2756.00000    0.04389
2756.50000    0.04458
2757.00000    0.04497
2757.50000    0.04519
2758.00000    0.04533
2758.50000    0.04549
2759.00000    0.04575
2759.50000    0.04618
2760.00000    0.04681
2760.50000    0.04765
2761.00000    0.04870
2761.50000    0.04991
2762.00000    0.05122
2762.50000    0.05253
2763.00000    0.05374
2763.50000    0.05474
2764.00000    0.05539
2764.50000    0.05557
2765.00000    0.05515
2765.50000    0.05402
2766.00000    0.05208
2766.50000    0.04924
2767.00000    0.04543
2767.50000    0.04061
2768.00000    0.03474
2768.50000    0.02782
2769.00000    0.01988
2769.50000    0.01095
2770.00000    0.00110
2770.50000   -0.00958
2771.00000   -0.02096
2771.50000   -0.03292
2772.00000   -0.04529
2772.50000   -0.05789
2773.00000   -0.07052
2773.50000   -0.08296
2774.00000   -0.09499
2774.50000   -0.10637
2775.00000   -0.11688
2775.50000   -0.12629
2776.00000   -0.13440
2776.50000   -0.14101
2777.00000   -0.14598
2777.50000   -0.14917
2778.00000   -0.15050
2778.50000   -0.14994
2779.00000   -0.14748
2779.50000   -0.14317
2780.00000   -0.13712
2780.50000   -0.12945
2781.00000   -0.12036
2781.50000   -0.11006
2782.00000   -0.09881
2782.50000   -0.08687
2783.00000   -0.07455
2783.50000   -0.06215
2784.00000   -0.04999
2784.50000   -0.03840
2785.00000   -0.02766
2785.50000   -0.01809
2786.00000   -0.00993
2786.50000   -0.00342
2787.00000    0.00125
2787.50000    0.00393
2788.00000    0.00455
2788.50000    0.00308
2789.00000   -0.00042
2789.50000   -0.00585
2790.00000   -0.01302
2790.50000   -0.02168
2791.00000   -0.03151
2791.50000   -0.04215
2792.00000   -0.05321
2792.50000   -0.06426
2793.00000   -0.07488
2793.50000   -0.08464
2794.00000   -0.09316
2794.50000   -0.10009
2795.00000   -0.10517
2795.50000   -0.10817
2796.00000   -0.10898
2796.50000   -0.10756
2797.00000   -0.10394
2797.50000   -0.09826
2798.00000   -0.09072
2798.50000   -0.08155
2799.00000   -0.07107
2799.50000   -0.05958
2800.00000   -0.04741
2800.50000   -0.03488
2801.00000   -0.02226
2801.50000   -0.00979
2802.00000    0.00233
2802.50000    0.01399
2803.00000    0.02511
2803.50000    0.03567
2804.00000    0.04573
2804.50000    0.05536
2805.00000    0.06468
2805.50000    0.07380
2806.00000    0.08286
2806.50000    0.09197
2807.00000    0.10122
2807.50000    0.11066
2808.00000    0.12030
2808.50000    0.13010
2809.00000    0.13998
2809.50000    0.14980
2810.00000    0.15938
2810.50000    0.16851
2811.00000    0.17694
2811.50000    0.18441
2812.00000    0.19065
2812.50000    0.19539
2813.00000    0.19840
2813.50000    0.19942
2814.00000    0.19829
2814.50000    0.19485
2815.00000    0.18899
2815.50000    0.18067
2816.00000    0.16989
2816.50000    0.15673
2817.00000    0.14131
2817.50000    0.12381
2818.00000    0.10448
2818.50000    0.08360
2819.00000    0.06152
2819.50000    0.03860
2820.00000    0.01526
2820.50000   -0.00807
2821.00000   -0.03096
2821.50000   -0.05297
2822.00000   -0.07367
2822.50000   -0.09265
2823.00000   -0.10955
2823.50000   -0.12407
2824.00000   -0.13595
2824.50000   -0.14501
2825.00000   -0.15115
2825.50000   -0.15435
2826.00000   -0.15468
2826.50000   -0.15230
2827.00000   -0.14742
2827.50000   -0.14034
2828.00000   -0.13141
2828.50000   -0.12101
2829.00000   -0.10957
2829.50000   -0.09750
2830.00000   -0.08520
2830.50000   -0.07305
2831.00000   -0.06138
2831.50000   -0.05047
2832.00000   -0.04054
2832.50000   -0.03171
2833.00000   -0.02407
2833.50000   -0.01761
2834.00000   -0.01228
2834.50000   -0.00798
2835.00000   -0.00454
2835.50000   -0.00181
2836.00000    0.00041
2836.50000    0.00230
2837.00000    0.00403
2837.50000    0.00577
2838.00000    0.00763
2838.50000    0.00972
2839.00000    0.01212
2839.50000    0.01487
2840.00000    0.01803
2840.50000    0.02161
2841.00000    0.02566
2841.50000    0.03020
2842.00000    0.03528
2842.50000    0.04099
2843.00000    0.04741
2843.50000    0.05465
2844.00000    0.06281
2844.50000    0.07204
2845.00000    0.08243
2845.50000    0.09408
2846.00000    0.10706
2846.50000    0.12138
2847.00000    0.13700
2847.50000    0.15384
2848.00000    0.17173
2848.50000    0.19046
2849.00000    0.20977
2849.50000    0.22933
2850.00000    0.24882
2850.50000    0.26788
2851.00000    0.28618
2851.50000    0.30342
2852.00000    0.31932
2852.50000    0.33369
2853.00000    0.34643
2853.50000    0.35748
2854.00000    0.36690
2854.50000    0.37485
2855.00000    0.38153
2855.50000    0.38723
2856.00000    0.39229
2856.50000    0.39707
2857.00000    0.40195
2857.50000    0.40727
2858.00000    0.41337
2858.50000    0.42050
2859.00000    0.42886
2859.50000    0.43855
2860.00000    0.44959
2860.50000    0.46189
2861.00000    0.47530
2861.50000    0.48954
2862.00000    0.50431
2862.50000    0.51921
2863.00000    0.53384
2863.50000    0.54775
2864.00000    0.56051
2864.50000    0.57169
2865.00000    0.58092
2865.50000    0.58783
2866.00000    0.59215
2866.50000    0.59365
2867.00000    0.59215
2867.50000    0.58754
2868.00000    0.57977
2868.50000    0.56882
2869.00000    0.55475
2869.50000    0.53761
2870.00000    0.51752
2870.50000    0.49459
2871.00000    0.46897
2871.50000    0.44082
2872.00000    0.41031
2872.50000    0.37766
2873.00000    0.34306
2873.50000    0.30677
2874.00000    0.26905
2874.50000    0.23024
2875.00000    0.19067
2875.50000    0.15075
2876.00000    0.11091
2876.50000    0.07164
2877.00000    0.03346
2877.50000   -0.00308
2878.00000   -0.03741
2878.50000   -0.06896
2879.00000   -0.09717
2879.50000   -0.12149
2880.00000   -0.14142
2880.50000   -0.15652
2881.00000   -0.16641
2881.50000   -0.17081
2882.00000   -0.16952
2882.50000   -0.16245
2883.00000   -0.14960
2883.50000   -0.13108
2884.00000   -0.10710
2884.50000   -0.07795
2885.00000   -0.04402
2885.50000   -0.00574
2886.00000    0.03639
2886.50000    0.08184
2887.00000    0.13005
2887.50000    0.18048
2888.00000    0.23258
2888.50000    0.28583
2889.00000    0.33975
2889.50000    0.39392
2890.00000    0.44796
2890.50000    0.50155
2891.00000    0.55447
2891.50000    0.60653
2892.00000    0.65761
2892.50000    0.70768
2893.00000    0.75671
2893.50000    0.80478
2894.00000    0.85194
2894.50000    0.89832
2895.00000    0.94404
2895.50000    0.98922
2896.00000    1.03399
2896.50000    1.07846
2897.00000    1.12274
2897.50000    1.16689
2898.00000    1.21098
2898.50000    1.25505
2899.00000    1.29911
2899.50000    1.34316
