1200.50000   -0.04073
1201.00000   -0.03777
1201.50000   -0.03480
1202.00000   -0.03183
1202.50000   -0.02884
1203.00000   -0.02581
1203.50000   -0.02275
1204.00000   -0.01962
1204.50000   -0.01640
1205.00000   -0.01306
1205.50000   -0.00958
1206.00000   -0.00591
1206.50000   -0.00202
1207.00000    0.00212
1207.50000    0.00655
1208.00000    0.01130
1208.50000    0.01641
1209.00000    0.02190
1209.50000    0.02777
1210.00000    0.03405
1210.50000    0.04072
1211.00000    0.04778
1211.50000    0.05519
1212.00000    0.06292
1212.50000    0.07091
1213.00000    0.07911
1213.50000    0.08744
1214.00000    0.09582
1214.50000    0.10414
1215.00000    0.11232
1215.50000    0.12025
1216.00000    0.12781
1216.50000    0.13489
1217.00000    0.14138
1217.50000    0.14718
1218.00000    0.15218
1218.50000    0.15628
1219.00000    0.15940
1219.50000    0.16147
1220.00000    0.16242
1220.50000    0.16220
1221.00000    0.16079
1221.50000    0.15817
1222.00000    0.15434
1222.50000    0.14931
1223.00000    0.14313
1223.50000    0.13583
1224.00000    0.12750
1224.50000    0.11820
1225.00000    0.10803
1225.50000    0.09710
1226.00000    0.08552
1226.50000    0.07342
1227.00000    0.06092
1227.50000    0.04816
1228.00000    0.03528
1228.50000    0.02240
1229.00000    0.00967
1229.50000   -0.00280
1230.00000   -0.01488
1230.50000   -0.02646
1231.00000   -0.03743
1231.50000   -0.04771
1232.00000   -0.05721
1232.50000   -0.06587
1233.00000   -0.07363
1233.50000   -0.08046
1234.00000   -0.08632
1234.50000   -0.09121
1235.00000   -0.09513
1235.50000   -0.09809
1236.00000   -0.10013
1236.50000   -0.10130
1237.00000   -0.10162
1237.50000   -0.10118
1238.00000   -0.10004
1238.50000   -0.09826
1239.00000   -0.09593
1239.50000   -0.09313
1240.00000   -0.08993
1240.50000   -0.08640
1241.00000   -0.08263
1241.50000   -0.07867
1242.00000   -0.07459
1242.50000   -0.07043
1243.00000   -0.06623
1243.50000   -0.06203
1244.00000   -0.05784
1244.50000   -0.05368
1245.00000   -0.04955
1245.50000   -0.04545
1246.00000   -0.04136
1246.50000   -0.03728
1247.00000   -0.03318
1247.50000   -0.02906
1248.00000   -0.02490
1248.50000   -0.02069
1249.00000   -0.01644
1249.50000   -0.01214
1250.00000   -0.00782
1250.50000   -0.00350
1251.00000    0.00079
1251.50000    0.00501
1252.00000    0.00912
1252.50000    0.01306
1253.00000    0.01678
1253.50000    0.02023
1254.00000    0.02335
1254.50000    0.02610
1255.00000    0.02844
1255.50000    0.03034
1256.00000    0.03177
1256.50000    0.03274
1257.00000    0.03323
1257.50000    0.03327
1258.00000    0.03289
1258.50000    0.03212
1259.00000    0.03102
1259.50000    0.02964
1260.00000    0.02805
1260.50000    0.02632
1261.00000    0.02453
1261.50000    0.02274
1262.00000    0.02102
1262.50000    0.01945
1263.00000    0.01807
1263.50000    0.01696
1264.00000    0.01615
1264.50000    0.01569
1265.00000    0.01560
1265.50000    0.01591
1266.00000    0.01663
1266.50000    0.01776
1267.00000    0.01931
1267.50000    0.02126
1268.00000    0.02360
1268.50000    0.02631
1269.00000    0.02935
1269.50000    0.03270
1270.00000    0.03631
1270.50000    0.04015
1271.00000    0.04416
1271.50000    0.04829
1272.00000    0.05250
1272.50000    0.05672
1273.00000    0.06090
1273.50000    0.06497
1274.00000    0.06886
1274.50000    0.07253
1275.00000    0.07589
1275.50000    0.07889
1276.00000    0.08147
1276.50000    0.08357
1277.00000    0.08512
1277.50000    0.08609
1278.00000    0.08642
1278.50000    0.08607
1279.00000    0.08502
1279.50000    0.08323
1280.00000    0.08069
1280.50000    0.07739
1281.00000    0.07334
1281.50000    0.06854
1282.00000    0.06302
1282.50000    0.05682
1283.00000    0.04997
1283.50000    0.04255
1284.00000    0.03461
1284.50000    0.02625
1285.00000    0.01755
1285.50000    0.00861
1286.00000   -0.00046
1286.50000   -0.00954
1287.00000   -0.01852
1287.50000   -0.02728
1288.00000   -0.03569
1288.50000   -0.04366
1289.00000   -0.05106
1289.50000   -0.05782
1290.00000   -0.06385
1290.50000   -0.06909
1291.00000   -0.07350
1291.50000   -0.07705
1292.00000   -0.07975
1292.50000   -0.08162
1293.00000   -0.08269
1293.50000   -0.08303
1294.00000   -0.08273
1294.50000   -0.08187
1295.00000   -0.08056
1295.50000   -0.07890
1296.00000   -0.07702
1296.50000   -0.07500
1297.00000   -0.07296
1297.50000   -0.07098
1298.00000   -0.06913
1298.50000   -0.06746
1299.00000   -0.06601
1299.50000   -0.06478
1300.00000   -0.06378
1300.50000   -0.06296
1301.00000   -0.06228
1301.50000   -0.06169
1302.00000   -0.06111
1302.50000   -0.06046
1303.00000   -0.05967
1303.50000   -0.05867
1304.00000   -0.05739
1304.50000   -0.05576
1305.00000   -0.05375
1305.50000   -0.05133
1306.00000   -0.04849
1306.50000   -0.04524
1307.00000   -0.04160
1307.50000   -0.03761
1308.00000   -0.03332
1308.50000   -0.02877
1309.00000   -0.02404
1309.50000   -0.01919
1310.00000   -0.01428
1310.50000   -0.00935
1311.00000   -0.00445
1311.50000    0.00038
1312.00000    0.00513
1312.50000    0.00979
1313.00000    0.01438
1313.50000    0.01892
1314.00000    0.02344
1314.50000    0.02799
1315.00000    0.03260
1315.50000    0.03733
1316.00000    0.04223
1316.50000    0.04733
1317.00000    0.05268
1317.50000    0.05830
1318.00000    0.06422
1318.50000    0.07043
1319.00000    0.07694
1319.50000    0.08372
1320.00000    0.09076
1320.50000    0.09802
1321.00000    0.10548
1321.50000    0.11309
1322.00000    0.12082
1322.50000    0.12864
1323.00000    0.13653
1323.50000    0.14447
1324.00000    0.15245
1324.50000    0.16049
1325.00000    0.16858
1325.50000    0.17675
1326.00000    0.18503
1326.50000    0.19346
1327.00000    0.20207
1327.50000    0.21090
1328.00000    0.21998
1328.50000    0.22933
1329.00000    0.23899
1329.50000    0.24895
1330.00000    0.25922
1330.50000    0.26977
1331.00000    0.28057
1331.50000    0.29159
1332.00000    0.30276
1332.50000    0.31402
1333.00000    0.32528
1333.50000    0.33647
1334.00000    0.34748
1334.50000    0.35823
1335.00000    0.36863
1335.50000    0.37857
1336.00000    0.38798
1336.50000    0.39677
1337.00000    0.40487
1337.50000    0.41221
1338.00000    0.41873
1338.50000    0.42439
1339.00000    0.42915
1339.50000    0.43297
1340.00000    0.43584
1340.50000    0.43773
1341.00000    0.43865
1341.50000    0.43857
1342.00000    0.43752
1342.50000    0.43548
1343.00000    0.43248
1343.50000    0.42852
1344.00000    0.42363
1344.50000    0.41782
1345.00000    0.41113
1345.50000    0.40358
1346.00000    0.39522
1346.50000    0.38609
1347.00000    0.37624
1347.50000    0.36572
1348.00000    0.35461
1348.50000    0.34296
1349.00000    0.33086
1349.50000    0.31837
1350.00000    0.30559
1350.50000    0.29259
1351.00000    0.27948
1351.50000    0.26633
1352.00000    0.25323
1352.50000    0.24027
1353.00000    0.22753
1353.50000    0.21510
1354.00000    0.20305
1354.50000    0.19144
1355.00000    0.18033
1355.50000    0.16978
1356.00000    0.15983
1356.50000    0.15050
1357.00000    0.14182
1357.50000    0.13379
1358.00000    0.12642
1358.50000    0.11967
1359.00000    0.11353
1359.50000    0.10796
1360.00000    0.10289
1360.50000    0.09828
1361.00000    0.09404
1361.50000    0.09010
1362.00000    0.08637
1362.50000    0.08276
1363.00000    0.07917
1363.50000    0.07550
1364.00000    0.07167
1364.50000    0.06758
1365.00000    0.06315
1365.50000    0.05832
1366.00000    0.05301
1366.50000    0.04719
1367.00000    0.04082
1367.50000    0.03390
1368.00000    0.02644
1368.50000    0.01846
1369.00000    0.01001
1369.50000    0.00117
1370.00000   -0.00800
1370.50000   -0.01737
1371.00000   -0.02684
1371.50000   -0.03628
1372.00000   -0.04555
1372.50000   -0.05451
1373.00000   -0.06304
1373.50000   -0.07098
1374.00000   -0.07822
1374.50000   -0.08463
1375.00000   -0.09012
1375.50000   -0.09460
1376.00000   -0.09802
1376.50000   -0.10034
1377.00000   -0.10155
1377.50000   -0.10166
1378.00000   -0.10071
1378.50000   -0.09877
1379.00000   -0.09591
1379.50000   -0.09223
1380.00000   -0.08786
1380.50000   -0.08293
1381.00000   -0.07757
1381.50000   -0.07192
1382.00000   -0.06612
1382.50000   -0.06029
1383.00000   -0.05455
1383.50000   -0.04900
1384.00000   -0.04374
1384.50000   -0.03881
1385.00000   -0.03426
1385.50000   -0.03010
1386.00000   -0.02634
1386.50000   -0.02293
1387.00000   -0.01985
1387.50000   -0.01703
1388.00000   -0.01439
1388.50000   -0.01187
1389.00000   -0.00938
1389.50000   -0.00684
1390.00000   -0.00418
1390.50000   -0.00134
1391.00000    0.00173
1391.50000    0.00506
1392.00000    0.00867
1392.50000    0.01255
1393.00000    0.01668
1393.50000    0.02100
1394.00000    0.02548
1394.50000    0.03003
1395.00000    0.03458
1395.50000    0.03903
1396.00000    0.04331
1396.50000    0.04732
1397.00000    0.05098
1397.50000    0.05423
1398.00000    0.05699
1398.50000    0.05923
1399.00000    0.06090
1399.50000    0.06200
1400.00000    0.06253
1400.50000    0.06249
1401.00000    0.06191
1401.50000    0.06084
1402.00000    0.05932
1402.50000    0.05741
1403.00000    0.05516
1403.50000    0.05265
1404.00000    0.04991
1404.50000    0.04701
1405.00000    0.04399
1405.50000    0.04089
1406.00000    0.03775
1406.50000    0.03458
1407.00000    0.03141
1407.50000    0.02824
1408.00000    0.02506
1408.50000    0.02188
1409.00000    0.01868
1409.50000    0.01544
1410.00000    0.01214
1410.50000    0.00876
1411.00000    0.00528
1411.50000    0.00167
1412.00000   -0.00207
1412.50000   -0.00598
1413.00000   -0.01007
1413.50000   -0.01435
1414.00000   -0.01883
1414.50000   -0.02350
1415.00000   -0.02837
1415.50000   -0.03343
1416.00000   -0.03867
1416.50000   -0.04404
1417.00000   -0.04954
1417.50000   -0.05510
1418.00000   -0.06069
1418.50000   -0.06624
1419.00000   -0.07169
1419.50000   -0.07694
1420.00000   -0.08193
1420.50000   -0.08656
1421.00000   -0.09074
1421.50000   -0.09436
1422.00000   -0.09734
1422.50000   -0.09960
1423.00000   -0.10104
1423.50000   -0.10162
1424.00000   -0.10126
1424.50000   -0.09995
1425.00000   -0.09768
1425.50000   -0.09444
1426.00000   -0.09028
1426.50000   -0.08526
1427.00000   -0.07944
1427.50000   -0.07294
1428.00000   -0.06587
1428.50000   -0.05836
1429.00000   -0.05056
1429.50000   -0.04261
1430.00000   -0.03466
1430.50000   -0.02685
1431.00000   -0.01931
1431.50000   -0.01216
1432.00000   -0.00550
1432.50000    0.00062
1433.00000    0.00614
1433.50000    0.01105
1434.00000    0.01535
1434.50000    0.01909
1435.00000    0.02232
1435.50000    0.02511
1436.00000    0.02758
1436.50000    0.02982
1437.00000    0.03194
1437.50000    0.03407
1438.00000    0.03629
1438.50000    0.03872
1439.00000    0.04143
1439.50000    0.04447
1440.00000    0.04787
1440.50000    0.05166
1441.00000    0.05580
1441.50000    0.06025
1442.00000    0.06494
1442.50000    0.06978
1443.00000    0.07465
1443.50000    0.07943
1444.00000    0.08400
1444.50000    0.08821
1445.00000    0.09193
1445.50000    0.09505
1446.00000    0.09745
1446.50000    0.09904
1447.00000    0.09975
1447.50000    0.09955
1448.00000    0.09842
1448.50000    0.09637
1449.00000    0.09344
1449.50000    0.08970
1450.00000    0.08525
1450.50000    0.08019
1451.00000    0.07465
1451.50000    0.06876
1452.00000    0.06268
1452.50000    0.05653
1453.00000    0.05045
1453.50000    0.04456
1454.00000    0.03896
1454.50000    0.03374
1455.00000    0.02896
1455.50000    0.02465
1456.00000    0.02084
1456.50000    0.01749
1457.00000    0.01459
1457.50000    0.01207
1458.00000    0.00986
1458.50000    0.00788
1459.00000    0.00604
1459.50000    0.00425
1460.00000    0.00243
1460.50000    0.00049
1461.00000   -0.00163
1461.50000   -0.00397
1462.00000   -0.00657
1462.50000   -0.00944
1463.00000   -0.01254
1463.50000   -0.01586
1464.00000   -0.01933
1464.50000   -0.02290
1465.00000   -0.02646
1465.50000   -0.02995
1466.00000   -0.03325
1466.50000   -0.03628
1467.00000   -0.03894
1467.50000   -0.04117
1468.00000   -0.04289
1468.50000   -0.04404
1469.00000   -0.04460
1469.50000   -0.04455
1470.00000   -0.04389
1470.50000   -0.04263
1471.00000   -0.04081
1471.50000   -0.03846
1472.00000   -0.03564
1472.50000   -0.03239
1473.00000   -0.02879
1473.50000   -0.02487
1474.00000   -0.02071
1474.50000   -0.01633
1475.00000   -0.01180
1475.50000   -0.00714
1476.00000   -0.00240
1476.50000    0.00241
1477.00000    0.00724
1477.50000    0.01207
1478.00000    0.01686
1478.50000    0.02158
1479.00000    0.02619
1479.50000    0.03062
1480.00000    0.03482
1480.50000    0.03871
1481.00000    0.04221
1481.50000    0.04523
1482.00000    0.04768
1482.50000    0.04946
1483.00000    0.05047
1483.50000    0.05064
1484.00000    0.04989
1484.50000    0.04814
1485.00000    0.04537
1485.50000    0.04154
1486.00000    0.03665
1486.50000    0.03073
1487.00000    0.02381
1487.50000    0.01599
1488.00000    0.00734
1488.50000   -0.00201
1489.00000   -0.01193
1489.50000   -0.02226
1490.00000   -0.03286
1490.50000   -0.04354
1491.00000   -0.05415
1491.50000   -0.06450
1492.00000   -0.07443
1492.50000   -0.08380
1493.00000   -0.09245
1493.50000   -0.10025
1494.00000   -0.10709
1494.50000   -0.11288
1495.00000   -0.11752
1495.50000   -0.12097
1496.00000   -0.12318
1496.50000   -0.12413
1497.00000   -0.12381
1497.50000   -0.12224
1498.00000   -0.11945
1498.50000   -0.11547
1499.00000   -0.11038
1499.50000   -0.10424
1500.00000   -0.09713
1500.50000   -0.08914
1501.00000   -0.08036
1501.50000   -0.07090
1502.00000   -0.06085
1502.50000   -0.05032
1503.00000   -0.03939
1503.50000   -0.02817
1504.00000   -0.01674
1504.50000   -0.00519
1505.00000    0.00642
1505.50000    0.01801
1506.00000    0.02951
1506.50000    0.04087
1507.00000    0.05203
1507.50000    0.06294
1508.00000    0.07354
1508.50000    0.08376
1509.00000    0.09355
1509.50000    0.10283
1510.00000    0.11153
1510.50000    0.11956
1511.00000    0.12684
1511.50000    0.13326
1512.00000    0.13874
1512.50000    0.14318
1513.00000    0.14650
1513.50000    0.14860
1514.00000    0.14944
1514.50000    0.14897
1515.00000    0.14718
1515.50000    0.14406
1516.00000    0.13966
1516.50000    0.13404
1517.00000    0.12731
1517.50000    0.11959
1518.00000    0.11104
1518.50000    0.10184
1519.00000    0.09218
1519.50000    0.08228
1520.00000    0.07234
1520.50000    0.06258
1521.00000    0.05321
1521.50000    0.04439
1522.00000    0.03630
1522.50000    0.02907
1523.00000    0.02280
1523.50000    0.01755
1524.00000    0.01337
1524.50000    0.01024
1525.00000    0.00813
1525.50000    0.00698
1526.00000    0.00671
1526.50000    0.00719
1527.00000    0.00832
1527.50000    0.00995
1528.00000    0.01195
1528.50000    0.01418
1529.00000    0.01652
1529.50000    0.01882
1530.00000    0.02098
1530.50000    0.02290
1531.00000    0.02447
1531.50000    0.02562
1532.00000    0.02629
1532.50000    0.02641
1533.00000    0.02594
1533.50000    0.02485
1534.00000    0.02311
1534.50000    0.02071
1535.00000    0.01763
1535.50000    0.01388
1536.00000    0.00949
1536.50000    0.00447
1537.00000   -0.00114
1537.50000   -0.00726
1538.00000   -0.01384
1538.50000   -0.02078
1539.00000   -0.02797
1539.50000   -0.03531
1540.00000   -0.04264
1540.50000   -0.04984
1541.00000   -0.05675
1541.50000   -0.06322
1542.00000   -0.06910
1542.50000   -0.07426
1543.00000   -0.07855
1543.50000   -0.08189
1544.00000   -0.08417
1544.50000   -0.08535
1545.00000   -0.08540
1545.50000   -0.08431
1546.00000   -0.08214
1546.50000   -0.07893
1547.00000   -0.07478
1547.50000   -0.06982
1548.00000   -0.06418
1548.50000   -0.05800
1549.00000   -0.05146
1549.50000   -0.04470
1550.00000   -0.03789
1550.50000   -0.03116
1551.00000   -0.02466
1551.50000   -0.01849
1552.00000   -0.01274
1552.50000   -0.00747
1553.00000   -0.00270
1553.50000    0.00155
1554.00000    0.00531
1554.50000    0.00863
1555.00000    0.01158
1555.50000    0.01425
1556.00000    0.01674
1556.50000    0.01917
1557.00000    0.02166
1557.50000    0.02435
1558.00000    0.02736
1558.50000    0.03082
1559.00000    0.03487
1559.50000    0.03963
1560.00000    0.04523
1560.50000    0.05179
1561.00000    0.05943
1561.50000    0.06827
1562.00000    0.07842
1562.50000    0.09001
1563.00000    0.10316
1563.50000    0.11800
1564.00000    0.13465
1564.50000    0.15325
1565.00000    0.17395
1565.50000    0.19690
1566.00000    0.22223
1566.50000    0.25011
1567.00000    0.28070
1567.50000    0.31414
1568.00000    0.35060
1568.50000    0.39021
1569.00000    0.43314
1569.50000    0.47949
1570.00000    0.52940
1570.50000    0.58296
1571.00000    0.64026
1571.50000    0.70136
1572.00000    0.76628
1572.50000    0.83504
1573.00000    0.90759
1573.50000    0.98388
1574.00000    1.06380
1574.50000    1.14719
1575.00000    1.23384
1575.50000    1.32352
1576.00000    1.41590
1576.50000    1.51063
1577.00000    1.60728
1577.50000    1.70538
1578.00000    1.80437
1578.50000    1.90366
1579.00000    2.00260
1579.50000    2.10049
1580.00000    2.19657
1580.50000    2.29005
1581.00000    2.38012
1581.50000    2.46593
1582.00000    2.54665
1582.50000    2.62142
1583.00000    2.68941
1583.50000    2.74982
1584.00000    2.80192
1584.50000    2.84500
1585.00000    2.87845
1585.50000    2.90175
1586.00000    2.91447
1586.50000    2.91630
1587.00000    2.90707
1587.50000    2.88672
1588.00000    2.85533
1588.50000    2.81313
1589.00000    2.76047
1589.50000    2.69783
1590.00000    2.62581
1590.50000    2.54514
1591.00000    2.45661
1591.50000    2.36114
1592.00000    2.25966
1592.50000    2.15320
1593.00000    2.04280
1593.50000    1.92949
1594.00000    1.81433
1594.50000    1.69833
1595.00000    1.58247
1595.50000    1.46767
1596.00000    1.35478
1596.50000    1.24457
1597.00000    1.13774
1597.50000    1.03488
1598.00000    0.93648
1598.50000    0.84296
1599.00000    0.75461
1599.50000    0.67165
1600.00000    0.59423
1600.50000    0.52239
1601.00000    0.45612
1601.50000    0.39534
1602.00000    0.33994
1602.50000    0.28974
1603.00000    0.24454
1603.50000    0.20410
1604.00000    0.16817
1604.50000    0.13649
1605.00000    0.10879
1605.50000    0.08478
1606.00000    0.06419
1606.50000    0.04674
1607.00000    0.03218
1607.50000    0.02023
1608.00000    0.01066
1608.50000    0.00322
1609.00000   -0.00231
1609.50000   -0.00615
1610.00000   -0.00848
1610.50000   -0.00949
1611.00000   -0.00935
1611.50000   -0.00821
1612.00000   -0.00621
1612.50000   -0.00347
1613.00000   -0.00011
1613.50000    0.00378
1614.00000    0.00811
1614.50000    0.01279
1615.00000    0.01774
1615.50000    0.02290
1616.00000    0.02818
1616.50000    0.03353
1617.00000    0.03886
1617.50000    0.04409
1618.00000    0.04915
1618.50000    0.05395
1619.00000    0.05840
1619.50000    0.06241
1620.00000    0.06591
1620.50000    0.06879
1621.00000    0.07098
1621.50000    0.07242
1622.00000    0.07305
1622.50000    0.07282
1623.00000    0.07172
1623.50000    0.06974
1624.00000    0.06690
1624.50000    0.06325
1625.00000    0.05884
1625.50000    0.05376
1626.00000    0.04810
1626.50000    0.04197
1627.00000    0.03548
1627.50000    0.02874
1628.00000    0.02188
1628.50000    0.01499
1629.00000    0.00818
1629.50000    0.00151
1630.00000   -0.00496
1630.50000   -0.01119
1631.00000   -0.01717
1631.50000   -0.02291
1632.00000   -0.02844
1632.50000   -0.03380
1633.00000   -0.03906
1633.50000   -0.04428
1634.00000   -0.04953
1634.50000   -0.05489
1635.00000   -0.06040
1635.50000   -0.06610
1636.00000   -0.07202
1636.50000   -0.07815
1637.00000   -0.08446
1637.50000   -0.09088
1638.00000   -0.09733
1638.50000   -0.10368
1639.00000   -0.10979
1639.50000   -0.11551
1640.00000   -0.12064
1640.50000   -0.12502
1641.00000   -0.12844
1641.50000   -0.13072
1642.00000   -0.13170
1642.50000   -0.13122
1643.00000   -0.12915
1643.50000   -0.12542
1644.00000   -0.11996
1644.50000   -0.11274
1645.00000   -0.10381
1645.50000   -0.09322
1646.00000   -0.08108
1646.50000   -0.06754
1647.00000   -0.05278
1647.50000   -0.03701
1648.00000   -0.02046
1648.50000   -0.00339
1649.00000    0.01395
1649.50000    0.03129
1650.00000    0.04837
1650.50000    0.06495
1651.00000    0.08080
1651.50000    0.09571
1652.00000    0.10951
1652.50000    0.12205
1653.00000    0.13322
1653.50000    0.14295
1654.00000    0.15120
1654.50000    0.15797
1655.00000    0.16328
1655.50000    0.16719
1656.00000    0.16977
1656.50000    0.17115
1657.00000    0.17142
1657.50000    0.17073
1658.00000    0.16919
1658.50000    0.16694
1659.00000    0.16410
1659.50000    0.16079
1660.00000    0.15711
1660.50000    0.15314
1661.00000    0.14895
1661.50000    0.14459
1662.00000    0.14009
1662.50000    0.13547
1663.00000    0.13075
1663.50000    0.12591
1664.00000    0.12095
1664.50000    0.11587
1665.00000    0.11065
1665.50000    0.10528
1666.00000    0.09978
1666.50000    0.09416
1667.00000    0.08843
1667.50000    0.08263
1668.00000    0.07681
1668.50000    0.07103
1669.00000    0.06535
1669.50000    0.05984
1670.00000    0.05457
1670.50000    0.04962
1671.00000    0.04504
1671.50000    0.04089
1672.00000    0.03722
1672.50000    0.03404
1673.00000    0.03137
1673.50000    0.02918
1674.00000    0.02744
1674.50000    0.02611
1675.00000    0.02509
1675.50000    0.02431
1676.00000    0.02366
1676.50000    0.02304
1677.00000    0.02232
1677.50000    0.02140
1678.00000    0.02016
1678.50000    0.01852
1679.00000    0.01640
1679.50000    0.01372
1680.00000    0.01045
1680.50000    0.00657
1681.00000    0.00210
1681.50000   -0.00294
1682.00000   -0.00849
1682.50000   -0.01447
1683.00000   -0.02079
1683.50000   -0.02733
1684.00000   -0.03397
1684.50000   -0.04059
1685.00000   -0.04706
1685.50000   -0.05326
1686.00000   -0.05908
1686.50000   -0.06442
1687.00000   -0.06921
1687.50000   -0.07337
1688.00000   -0.07688
1688.50000   -0.07971
1689.00000   -0.08187
1689.50000   -0.08338
1690.00000   -0.08428
1690.50000   -0.08463
1691.00000   -0.08450
1691.50000   -0.08395
1692.00000   -0.08308
1692.50000   -0.08195
1693.00000   -0.08063
1693.50000   -0.07919
1694.00000   -0.07768
1694.50000   -0.07612
1695.00000   -0.07454
1695.50000   -0.07293
1696.00000   -0.07126
1696.50000   -0.06951
1697.00000   -0.06760
1697.50000   -0.06547
1698.00000   -0.06304
1698.50000   -0.06022
1699.00000   -0.05692
1699.50000   -0.05304
1700.00000   -0.04851
1700.50000   -0.04326
1701.00000   -0.03722
1701.50000   -0.03036
1702.00000   -0.02266
1702.50000   -0.01413
1703.00000   -0.00480
1703.50000    0.00527
1704.00000    0.01600
1704.50000    0.02728
1705.00000    0.03897
1705.50000    0.05094
1706.00000    0.06302
1706.50000    0.07503
1707.00000    0.08679
1707.50000    0.09813
1708.00000    0.10887
1708.50000    0.11884
1709.00000    0.12790
1709.50000    0.13592
1710.00000    0.14279
1710.50000    0.14842
1711.00000    0.15278
1711.50000    0.15585
1712.00000    0.15762
1712.50000    0.15814
1713.00000    0.15746
1713.50000    0.15569
1714.00000    0.15291
1714.50000    0.14925
1715.00000    0.14482
1715.50000    0.13977
1716.00000    0.13423
1716.50000    0.12830
1717.00000    0.12211
1717.50000    0.11576
1718.00000    0.10932
1718.50000    0.10287
1719.00000    0.09644
1719.50000    0.09007
1720.00000    0.08376
1720.50000    0.07751
1721.00000    0.07131
1721.50000    0.06513
1722.00000    0.05895
1722.50000    0.05273
1723.00000    0.04647
1723.50000    0.04014
1724.00000    0.03375
1724.50000    0.02731
1725.00000    0.02085
1725.50000    0.01441
1726.00000    0.00806
1726.50000    0.00186
1727.00000   -0.00411
1727.50000   -0.00976
1728.00000   -0.01499
1728.50000   -0.01972
1729.00000   -0.02386
1729.50000   -0.02735
1730.00000   -0.03010
1730.50000   -0.03209
1731.00000   -0.03327
1731.50000   -0.03364
1732.00000   -0.03319
1732.50000   -0.03197
1733.00000   -0.03001
1733.50000   -0.02736
1734.00000   -0.02411
1734.50000   -0.02032
1735.00000   -0.01609
1735.50000   -0.01150
1736.00000   -0.00664
1736.50000   -0.00159
1737.00000    0.00357
1737.50000    0.00878
1738.00000    0.01396
1738.50000    0.01908
1739.00000    0.02411
1739.50000    0.02900
1740.00000    0.03375
1740.50000    0.03833
1741.00000    0.04276
1741.50000    0.04701
1742.00000    0.05109
1742.50000    0.05499
1743.00000    0.05872
1743.50000    0.06225
1744.00000    0.06557
1744.50000    0.06866
1745.00000    0.07148
1745.50000    0.07401
1746.00000    0.07619
1746.50000    0.07798
1747.00000    0.07932
1747.50000    0.08016
1748.00000    0.08044
1748.50000    0.08010
1749.00000    0.07911
1749.50000    0.07741
1750.00000    0.07497
1750.50000    0.07176
1751.00000    0.06778
1751.50000    0.06302
1752.00000    0.05750
1752.50000    0.05126
1753.00000    0.04433
1753.50000    0.03679
1754.00000    0.02870
1754.50000    0.02016
1755.00000    0.01127
1755.50000    0.00213
1756.00000   -0.00715
1756.50000   -0.01646
1757.00000   -0.02568
1757.50000   -0.03470
1758.00000   -0.04342
1758.50000   -0.05174
1759.00000   -0.05957
1759.50000   -0.06686
1760.00000   -0.07352
1760.50000   -0.07954
1761.00000   -0.08486
1761.50000   -0.08949
1762.00000   -0.09341
1762.50000   -0.09664
1763.00000   -0.09921
1763.50000   -0.10115
1764.00000   -0.10250
1764.50000   -0.10331
1765.00000   -0.10362
1765.50000   -0.10350
1766.00000   -0.10298
1766.50000   -0.10213
1767.00000   -0.10099
1767.50000   -0.09959
1768.00000   -0.09797
1768.50000   -0.09615
1769.00000   -0.09416
1769.50000   -0.09202
1770.00000   -0.08971
1770.50000   -0.08724
1771.00000   -0.08460
1771.50000   -0.08178
1772.00000   -0.07876
1772.50000   -0.07552
1773.00000   -0.07204
1773.50000   -0.06829
1774.00000   -0.06426
1774.50000   -0.05994
1775.00000   -0.05532
1775.50000   -0.05040
1776.00000   -0.04520
1776.50000   -0.03973
1777.00000   -0.03404
1777.50000   -0.02817
1778.00000   -0.02217
1778.50000   -0.01612
1779.00000   -0.01010
1779.50000   -0.00419
1780.00000    0.00151
1780.50000    0.00691
1781.00000    0.01191
1781.50000    0.01642
1782.00000    0.02036
1782.50000    0.02366
1783.00000    0.02626
1783.50000    0.02811
1784.00000    0.02921
1784.50000    0.02953
1785.00000    0.02911
1785.50000    0.02797
1786.00000    0.02618
1786.50000    0.02382
1787.00000    0.02097
1787.50000    0.01775
1788.00000    0.01428
1788.50000    0.01067
1789.00000    0.00707
1789.50000    0.00360
1790.00000    0.00040
1790.50000   -0.00240
1791.00000   -0.00470
1791.50000   -0.00637
1792.00000   -0.00734
1792.50000   -0.00752
1793.00000   -0.00685
1793.50000   -0.00529
1794.00000   -0.00281
1794.50000    0.00058
1795.00000    0.00486
1795.50000    0.01001
1796.00000    0.01594
1796.50000    0.02260
1797.00000    0.02987
1797.50000    0.03765
1798.00000    0.04580
1798.50000    0.05419
1799.00000    0.06266
1799.50000    0.07107
1800.00000    0.07924
1800.50000    0.08703
1801.00000    0.09428
1801.50000    0.10086
1802.00000    0.10662
1802.50000    0.11147
1803.00000    0.11530
1803.50000    0.11805
1804.00000    0.11966
1804.50000    0.12010
1805.00000    0.11939
1805.50000    0.11753
1806.00000    0.11457
1806.50000    0.11058
1807.00000    0.10563
1807.50000    0.09982
1808.00000    0.09325
1808.50000    0.08602
1809.00000    0.07825
1809.50000    0.07006
1810.00000    0.06154
1810.50000    0.05280
1811.00000    0.04394
1811.50000    0.03504
1812.00000    0.02617
1812.50000    0.01741
1813.00000    0.00881
1813.50000    0.00041
1814.00000   -0.00774
1814.50000   -0.01560
1815.00000   -0.02316
1815.50000   -0.03039
1816.00000   -0.03728
1816.50000   -0.04380
1817.00000   -0.04995
1817.50000   -0.05572
1818.00000   -0.06111
1818.50000   -0.06609
1819.00000   -0.07068
1819.50000   -0.07486
1820.00000   -0.07864
1820.50000   -0.08200
1821.00000   -0.08495
1821.50000   -0.08748
1822.00000   -0.08959
1822.50000   -0.09127
1823.00000   -0.09253
1823.50000   -0.09335
1824.00000   -0.09374
1824.50000   -0.09368
1825.00000   -0.09318
1825.50000   -0.09223
1826.00000   -0.09084
1826.50000   -0.08901
1827.00000   -0.08674
1827.50000   -0.08404
1828.00000   -0.08094
1828.50000   -0.07745
1829.00000   -0.07360
1829.50000   -0.06942
1830.00000   -0.06495
1830.50000   -0.06021
1831.00000   -0.05525
1831.50000   -0.05009
1832.00000   -0.04479
1832.50000   -0.03936
1833.00000   -0.03384
1833.50000   -0.02824
1834.00000   -0.02259
1834.50000   -0.01690
1835.00000   -0.01117
1835.50000   -0.00542
1836.00000    0.00036
1836.50000    0.00616
1837.00000    0.01197
1837.50000    0.01776
1838.00000    0.02352
1838.50000    0.02921
1839.00000    0.03478
1839.50000    0.04015
1840.00000    0.04526
1840.50000    0.05001
1841.00000    0.05430
1841.50000    0.05801
1842.00000    0.06103
1842.50000    0.06323
1843.00000    0.06451
1843.50000    0.06477
1844.00000    0.06390
1844.50000    0.06185
1845.00000    0.05858
1845.50000    0.05407
1846.00000    0.04834
1846.50000    0.04144
1847.00000    0.03346
1847.50000    0.02452
1848.00000    0.01476
1848.50000    0.00437
1849.00000   -0.00645
1849.50000   -0.01749
1850.00000   -0.02852
1850.50000   -0.03928
1851.00000   -0.04955
1851.50000   -0.05908
1852.00000   -0.06768
1852.50000   -0.07512
1853.00000   -0.08124
1853.50000   -0.08588
1854.00000   -0.08893
1854.50000   -0.09030
1855.00000   -0.08993
1855.50000   -0.08782
1856.00000   -0.08398
1856.50000   -0.07846
1857.00000   -0.07134
1857.50000   -0.06273
1858.00000   -0.05276
1858.50000   -0.04159
1859.00000   -0.02939
1859.50000   -0.01634
1860.00000   -0.00263
1860.50000    0.01153
1861.00000    0.02594
1861.50000    0.04041
1862.00000    0.05473
1862.50000    0.06871
1863.00000    0.08218
1863.50000    0.09496
1864.00000    0.10690
1864.50000    0.11785
1865.00000    0.12768
1865.50000    0.13629
1866.00000    0.14360
1866.50000    0.14952
1867.00000    0.15402
1867.50000    0.15707
1868.00000    0.15866
1868.50000    0.15881
1869.00000    0.15756
1869.50000    0.15499
1870.00000    0.15116
1870.50000    0.14618
1871.00000    0.14018
1871.50000    0.13328
1872.00000    0.12565
1872.50000    0.11744
1873.00000    0.10883
1873.50000    0.09999
1874.00000    0.09110
1874.50000    0.08233
1875.00000    0.07385
1875.50000    0.06582
1876.00000    0.05839
1876.50000    0.05168
1877.00000    0.04582
1877.50000    0.04088
1878.00000    0.03694
1878.50000    0.03405
1879.00000    0.03222
1879.50000    0.03145
1880.00000    0.03171
1880.50000    0.03295
1881.00000    0.03510
1881.50000    0.03806
1882.00000    0.04171
1882.50000    0.04592
1883.00000    0.05055
1883.50000    0.05544
1884.00000    0.06043
1884.50000    0.06534
1885.00000    0.07001
1885.50000    0.07427
1886.00000    0.07797
1886.50000    0.08095
1887.00000    0.08309
1887.50000    0.08427
1888.00000    0.08442
1888.50000    0.08346
1889.00000    0.08137
1889.50000    0.07815
1890.00000    0.07383
1890.50000    0.06849
1891.00000    0.06222
1891.50000    0.05516
1892.00000    0.04746
1892.50000    0.03930
1893.00000    0.03089
1893.50000    0.02242
1894.00000    0.01411
1894.50000    0.00617
1895.00000   -0.00122
1895.50000   -0.00787
1896.00000   -0.01364
1896.50000   -0.01841
1897.00000   -0.02210
1897.50000   -0.02465
1898.00000   -0.02606
1898.50000   -0.02635
1899.00000   -0.02561
1899.50000   -0.02392
1900.00000   -0.02141
1900.50000   -0.01823
1901.00000   -0.01455
1901.50000   -0.01055
1902.00000   -0.00639
1902.50000   -0.00225
1903.00000    0.00172
1903.50000    0.00536
1904.00000    0.00857
1904.50000    0.01125
1905.00000    0.01331
1905.50000    0.01472
1906.00000    0.01545
1906.50000    0.01550
1907.00000    0.01489
1907.50000    0.01365
1908.00000    0.01182
1908.50000    0.00946
1909.00000    0.00660
1909.50000    0.00332
1910.00000   -0.00035
1910.50000   -0.00436
1911.00000   -0.00867
1911.50000   -0.01325
1912.00000   -0.01807
1912.50000   -0.02311
1913.00000   -0.02836
1913.50000   -0.03378
1914.00000   -0.03936
1914.50000   -0.04508
1915.00000   -0.05091
1915.50000   -0.05682
1916.00000   -0.06276
1916.50000   -0.06870
1917.00000   -0.07458
1917.50000   -0.08035
1918.00000   -0.08597
1918.50000   -0.09135
1919.00000   -0.09646
1919.50000   -0.10124
1920.00000   -0.10562
1920.50000   -0.10957
1921.00000   -0.11305
1921.50000   -0.11600
1922.00000   -0.11842
1922.50000   -0.12026
1923.00000   -0.12151
1923.50000   -0.12216
1924.00000   -0.12221
1924.50000   -0.12163
1925.00000   -0.12044
1925.50000   -0.11863
1926.00000   -0.11620
1926.50000   -0.11317
1927.00000   -0.10953
1927.50000   -0.10531
1928.00000   -0.10052
1928.50000   -0.09518
1929.00000   -0.08933
1929.50000   -0.08301
1930.00000   -0.07627
1930.50000   -0.06917
1931.00000   -0.06178
1931.50000   -0.05418
1932.00000   -0.04646
1932.50000   -0.03872
1933.00000   -0.03104
1933.50000   -0.02354
1934.00000   -0.01631
1934.50000   -0.00943
1935.00000   -0.00299
1935.50000    0.00295
1936.00000    0.00833
1936.50000    0.01312
1937.00000    0.01730
1937.50000    0.02089
1938.00000    0.02390
1938.50000    0.02639
1939.00000    0.02841
1939.50000    0.03005
1940.00000    0.03140
1940.50000    0.03253
1941.00000    0.03356
1941.50000    0.03456
1942.00000    0.03562
1942.50000    0.03681
1943.00000    0.03817
1943.50000    0.03975
1944.00000    0.04154
1944.50000    0.04355
1945.00000    0.04573
1945.50000    0.04804
1946.00000    0.05040
1946.50000    0.05274
1947.00000    0.05498
1947.50000    0.05702
1948.00000    0.05877
1948.50000    0.06015
1949.00000    0.06109
1949.50000    0.06154
1950.00000    0.06145
1950.50000    0.06081
1951.00000    0.05960
1951.50000    0.05783
1952.00000    0.05553
1952.50000    0.05275
1953.00000    0.04951
1953.50000    0.04588
1954.00000    0.04191
1954.50000    0.03763
1955.00000    0.03311
1955.50000    0.02838
1956.00000    0.02347
1956.50000    0.01839
1957.00000    0.01318
1957.50000    0.00782
1958.00000    0.00234
1958.50000   -0.00327
1959.00000   -0.00900
1959.50000   -0.01485
1960.00000   -0.02077
1960.50000   -0.02675
1961.00000   -0.03274
1961.50000   -0.03868
1962.00000   -0.04449
1962.50000   -0.05008
1963.00000   -0.05535
1963.50000   -0.06018
1964.00000   -0.06447
1964.50000   -0.06810
1965.00000   -0.07096
1965.50000   -0.07293
1966.00000   -0.07393
1966.50000   -0.07389
1967.00000   -0.07276
1967.50000   -0.07050
1968.00000   -0.06711
1968.50000   -0.06262
1969.00000   -0.05707
1969.50000   -0.05053
1970.00000   -0.04309
1970.50000   -0.03486
1971.00000   -0.02596
1971.50000   -0.01654
1972.00000   -0.00674
1972.50000    0.00329
1973.00000    0.01339
1973.50000    0.02341
1974.00000    0.03320
1974.50000    0.04261
1975.00000    0.05151
1975.50000    0.05977
1976.00000    0.06726
1976.50000    0.07390
1977.00000    0.07957
1977.50000    0.08422
1978.00000    0.08777
1978.50000    0.09019
1979.00000    0.09146
1979.50000    0.09157
1980.00000    0.09056
1980.50000    0.08846
1981.00000    0.08536
1981.50000    0.08134
1982.00000    0.07654
1982.50000    0.07109
1983.00000    0.06516
1983.50000    0.05893
1984.00000    0.05260
1984.50000    0.04637
1985.00000    0.04045
1985.50000    0.03504
1986.00000    0.03032
1986.50000    0.02647
1987.00000    0.02364
1987.50000    0.02194
1988.00000    0.02145
1988.50000    0.02222
1989.00000    0.02422
1989.50000    0.02741
1990.00000    0.03169
1990.50000    0.03691
1991.00000    0.04289
1991.50000    0.04941
1992.00000    0.05621
1992.50000    0.06302
1993.00000    0.06957
1993.50000    0.07556
1994.00000    0.08072
1994.50000    0.08478
1995.00000    0.08752
1995.50000    0.08874
1996.00000    0.08828
1996.50000    0.08604
1997.00000    0.08196
1997.50000    0.07605
1998.00000    0.06836
1998.50000    0.05901
1999.00000    0.04816
1999.50000    0.03600
2000.00000    0.02278
2000.50000    0.00876
2001.00000   -0.00578
2001.50000   -0.02053
2002.00000   -0.03520
2002.50000   -0.04953
2003.00000   -0.06323
2003.50000   -0.07607
2004.00000   -0.08785
2004.50000   -0.09839
2005.00000   -0.10755
2005.50000   -0.11525
2006.00000   -0.12141
2006.50000   -0.12602
2007.00000   -0.12908
2007.50000   -0.13062
2008.00000   -0.13071
2008.50000   -0.12942
2009.00000   -0.12684
2009.50000   -0.12305
2010.00000   -0.11817
2010.50000   -0.11229
2011.00000   -0.10551
2011.50000   -0.09795
2012.00000   -0.08968
2012.50000   -0.08082
2013.00000   -0.07146
2013.50000   -0.06170
2014.00000   -0.05163
2014.50000   -0.04136
2015.00000   -0.03098
2015.50000   -0.02061
2016.00000   -0.01034
2016.50000   -0.00029
2017.00000    0.00944
2017.50000    0.01876
2018.00000    0.02757
2018.50000    0.03578
2019.00000    0.04332
2019.50000    0.05012
2020.00000    0.05615
2020.50000    0.06135
2021.00000    0.06572
2021.50000    0.06926
2022.00000    0.07197
2022.50000    0.07389
2023.00000    0.07504
2023.50000    0.07547
2024.00000    0.07524
2024.50000    0.07440
2025.00000    0.07302
2025.50000    0.07114
2026.00000    0.06884
2026.50000    0.06615
2027.00000    0.06315
2027.50000    0.05987
2028.00000    0.05636
2028.50000    0.05267
2029.00000    0.04883
2029.50000    0.04490
2030.00000    0.04089
2030.50000    0.03686
2031.00000    0.03284
2031.50000    0.02886
2032.00000    0.02495
2032.50000    0.02115
2033.00000    0.01749
2033.50000    0.01398
2034.00000    0.01065
2034.50000    0.00751
2035.00000    0.00456
2035.50000    0.00181
2036.00000   -0.00075
2036.50000   -0.00313
2037.00000   -0.00535
2037.50000   -0.00742
2038.00000   -0.00935
2038.50000   -0.01117
2039.00000   -0.01289
2039.50000   -0.01452
2040.00000   -0.01606
2040.50000   -0.01751
2041.00000   -0.01887
2041.50000   -0.02014
2042.00000   -0.02128
2042.50000   -0.02230
2043.00000   -0.02316
2043.50000   -0.02386
2044.00000   -0.02438
2044.50000   -0.02470
2045.00000   -0.02484
2045.50000   -0.02479
2046.00000   -0.02457
2046.50000   -0.02421
2047.00000   -0.02374
2047.50000   -0.02321
2048.00000   -0.02267
2048.50000   -0.02218
2049.00000   -0.02179
2049.50000   -0.02157
2050.00000   -0.02157
2050.50000   -0.02185
2051.00000   -0.02246
2051.50000   -0.02342
2052.00000   -0.02477
2052.50000   -0.02650
2053.00000   -0.02861
2053.50000   -0.03108
2054.00000   -0.03387
2054.50000   -0.03693
2055.00000   -0.04018
2055.50000   -0.04356
2056.00000   -0.04696
2056.50000   -0.05030
2057.00000   -0.05348
2057.50000   -0.05638
2058.00000   -0.05890
2058.50000   -0.06094
2059.00000   -0.06241
2059.50000   -0.06320
2060.00000   -0.06324
2060.50000   -0.06245
2061.00000   -0.06078
2061.50000   -0.05817
2062.00000   -0.05459
2062.50000   -0.05003
2063.00000   -0.04447
2063.50000   -0.03794
2064.00000   -0.03046
2064.50000   -0.02207
2065.00000   -0.01283
2065.50000   -0.00279
2066.00000    0.00796
2066.50000    0.01934
2067.00000    0.03126
2067.50000    0.04361
2068.00000    0.05630
2068.50000    0.06923
2069.00000    0.08230
2069.50000    0.09540
2070.00000    0.10846
2070.50000    0.12136
2071.00000    0.13403
2071.50000    0.14640
2072.00000    0.15838
2072.50000    0.16990
2073.00000    0.18090
2073.50000    0.19133
2074.00000    0.20110
2074.50000    0.21018
2075.00000    0.21850
2075.50000    0.22599
2076.00000    0.23260
2076.50000    0.23827
2077.00000    0.24293
2077.50000    0.24652
2078.00000    0.24897
2078.50000    0.25024
2079.00000    0.25027
2079.50000    0.24903
2080.00000    0.24648
2080.50000    0.24261
2081.00000    0.23743
2081.50000    0.23096
2082.00000    0.22327
2082.50000    0.21441
2083.00000    0.20450
2083.50000    0.19364
2084.00000    0.18199
2084.50000    0.16969
2085.00000    0.15693
2085.50000    0.14388
2086.00000    0.13072
2086.50000    0.11763
2087.00000    0.10477
2087.50000    0.09229
2088.00000    0.08032
2088.50000    0.06894
2089.00000    0.05824
2089.50000    0.04825
2090.00000    0.03896
2090.50000    0.03036
2091.00000    0.02238
2091.50000    0.01495
2092.00000    0.00797
2092.50000    0.00135
2093.00000   -0.00504
2093.50000   -0.01130
2094.00000   -0.01751
2094.50000   -0.02375
2095.00000   -0.03008
2095.50000   -0.03651
2096.00000   -0.04304
2096.50000   -0.04962
2097.00000   -0.05619
2097.50000   -0.06264
2098.00000   -0.06884
2098.50000   -0.07467
2099.00000   -0.07996
2099.50000   -0.08457
2100.00000   -0.08834
2100.50000   -0.09113
2101.00000   -0.09282
2101.50000   -0.09333
2102.00000   -0.09259
2102.50000   -0.09056
2103.00000   -0.08725
2103.50000   -0.08269
2104.00000   -0.07697
2104.50000   -0.07017
2105.00000   -0.06244
2105.50000   -0.05390
2106.00000   -0.04474
2106.50000   -0.03513
2107.00000   -0.02523
2107.50000   -0.01524
2108.00000   -0.00532
2108.50000    0.00437
2109.00000    0.01367
2109.50000    0.02247
2110.00000    0.03064
2110.50000    0.03808
2111.00000    0.04472
2111.50000    0.05049
2112.00000    0.05536
2112.50000    0.05928
2113.00000    0.06226
2113.50000    0.06429
2114.00000    0.06538
2114.50000    0.06557
2115.00000    0.06489
2115.50000    0.06340
2116.00000    0.06116
2116.50000    0.05825
2117.00000    0.05475
2117.50000    0.05076
2118.00000    0.04637
2118.50000    0.04170
2119.00000    0.03685
2119.50000    0.03194
2120.00000    0.02708
2120.50000    0.02239
2121.00000    0.01795
2121.50000    0.01387
2122.00000    0.01023
2122.50000    0.00710
2123.00000    0.00453
2123.50000    0.00256
2124.00000    0.00123
2124.50000    0.00053
2125.00000    0.00046
2125.50000    0.00101
2126.00000    0.00213
2126.50000    0.00378
2127.00000    0.00590
2127.50000    0.00842
2128.00000    0.01127
2128.50000    0.01438
2129.00000    0.01766
2129.50000    0.02102
2130.00000    0.02437
2130.50000    0.02764
2131.00000    0.03074
2131.50000    0.03358
2132.00000    0.03608
2132.50000    0.03818
2133.00000    0.03981
2133.50000    0.04091
2134.00000    0.04143
2134.50000    0.04133
2135.00000    0.04058
2135.50000    0.03916
2136.00000    0.03707
2136.50000    0.03431
2137.00000    0.03091
2137.50000    0.02690
2138.00000    0.02233
2138.50000    0.01724
2139.00000    0.01171
2139.50000    0.00581
2140.00000   -0.00038
2140.50000   -0.00676
2141.00000   -0.01325
2141.50000   -0.01976
2142.00000   -0.02619
2142.50000   -0.03245
2143.00000   -0.03844
2143.50000   -0.04409
2144.00000   -0.04930
2144.50000   -0.05400
2145.00000   -0.05812
2145.50000   -0.06160
2146.00000   -0.06437
2146.50000   -0.06639
2147.00000   -0.06761
2147.50000   -0.06800
2148.00000   -0.06754
2148.50000   -0.06622
2149.00000   -0.06404
2149.50000   -0.06100
2150.00000   -0.05714
2150.50000   -0.05249
2151.00000   -0.04712
2151.50000   -0.04109
2152.00000   -0.03448
2152.50000   -0.02739
2153.00000   -0.01993
2153.50000   -0.01221
2154.00000   -0.00436
2154.50000    0.00350
2155.00000    0.01123
2155.50000    0.01871
2156.00000    0.02581
2156.50000    0.03243
2157.00000    0.03845
2157.50000    0.04379
2158.00000    0.04837
2158.50000    0.05215
2159.00000    0.05507
2159.50000    0.05713
2160.00000    0.05832
2160.50000    0.05868
2161.00000    0.05822
2161.50000    0.05702
2162.00000    0.05514
2162.50000    0.05265
2163.00000    0.04965
2163.50000    0.04623
2164.00000    0.04249
2164.50000    0.03852
2165.00000    0.03443
2165.50000    0.03030
2166.00000    0.02622
2166.50000    0.02227
2167.00000    0.01852
2167.50000    0.01502
2168.00000    0.01181
2168.50000    0.00893
2169.00000    0.00638
2169.50000    0.00419
2170.00000    0.00234
2170.50000    0.00081
2171.00000   -0.00042
2171.50000   -0.00139
2172.00000   -0.00215
2172.50000   -0.00274
2173.00000   -0.00321
2173.50000   -0.00360
2174.00000   -0.00396
2174.50000   -0.00434
2175.00000   -0.00475
2175.50000   -0.00523
2176.00000   -0.00578
2176.50000   -0.00640
2177.00000   -0.00708
2177.50000   -0.00780
2178.00000   -0.00852
2178.50000   -0.00919
2179.00000   -0.00977
2179.50000   -0.01021
2180.00000   -0.01044
2180.50000   -0.01043
2181.00000   -0.01012
2181.50000   -0.00948
2182.00000   -0.00848
2182.50000   -0.00712
2183.00000   -0.00540
2183.50000   -0.00334
2184.00000   -0.00098
2184.50000    0.00164
2185.00000    0.00446
2185.50000    0.00741
2186.00000    0.01040
2186.50000    0.01337
2187.00000    0.01623
2187.50000    0.01892
2188.00000    0.02136
2188.50000    0.02350
2189.00000    0.02529
2189.50000    0.02671
2190.00000    0.02774
2190.50000    0.02837
2191.00000    0.02860
2191.50000    0.02844
2192.00000    0.02793
2192.50000    0.02708
2193.00000    0.02593
2193.50000    0.02448
2194.00000    0.02277
2194.50000    0.02081
2195.00000    0.01860
2195.50000    0.01614
2196.00000    0.01343
2196.50000    0.01046
2197.00000    0.00720
2197.50000    0.00364
2198.00000   -0.00025
2198.50000   -0.00448
2199.00000   -0.00905
2199.50000   -0.01396
2200.00000   -0.01921
2200.50000   -0.02476
2201.00000   -0.03057
2201.50000   -0.03658
2202.00000   -0.04273
2202.50000   -0.04892
2203.00000   -0.05506
2203.50000   -0.06106
2204.00000   -0.06679
2204.50000   -0.07214
2205.00000   -0.07702
2205.50000   -0.08131
2206.00000   -0.08493
2206.50000   -0.08778
2207.00000   -0.08981
2207.50000   -0.09096
2208.00000   -0.09120
2208.50000   -0.09051
2209.00000   -0.08888
2209.50000   -0.08634
2210.00000   -0.08291
2210.50000   -0.07862
2211.00000   -0.07354
2211.50000   -0.06770
2212.00000   -0.06118
2212.50000   -0.05404
2213.00000   -0.04634
2213.50000   -0.03815
2214.00000   -0.02953
2214.50000   -0.02055
2215.00000   -0.01127
2215.50000   -0.00175
2216.00000    0.00792
2216.50000    0.01768
2217.00000    0.02744
2217.50000    0.03712
2218.00000    0.04661
2218.50000    0.05581
2219.00000    0.06460
2219.50000    0.07283
2220.00000    0.08036
2220.50000    0.08705
2221.00000    0.09274
2221.50000    0.09727
2222.00000    0.10049
2222.50000    0.10227
2223.00000    0.10247
2223.50000    0.10099
2224.00000    0.09775
2224.50000    0.09273
2225.00000    0.08590
2225.50000    0.07730
2226.00000    0.06703
2226.50000    0.05519
2227.00000    0.04197
2227.50000    0.02757
2228.00000    0.01224
2228.50000   -0.00373
2229.00000   -0.02004
2229.50000   -0.03636
2230.00000   -0.05233
2230.50000   -0.06763
2231.00000   -0.08192
2231.50000   -0.09487
2232.00000   -0.10619
2232.50000   -0.11563
2233.00000   -0.12296
2233.50000   -0.12801
2234.00000   -0.13066
2234.50000   -0.13085
2235.00000   -0.12855
2235.50000   -0.12382
2236.00000   -0.11676
2236.50000   -0.10753
2237.00000   -0.09633
2237.50000   -0.08339
2238.00000   -0.06901
2238.50000   -0.05350
2239.00000   -0.03717
2239.50000   -0.02037
2240.00000   -0.00345
2240.50000    0.01327
2241.00000    0.02946
2241.50000    0.04482
2242.00000    0.05910
2242.50000    0.07204
2243.00000    0.08347
2243.50000    0.09323
2244.00000    0.10121
2244.50000    0.10738
2245.00000    0.11169
2245.50000    0.11420
2246.00000    0.11496
2246.50000    0.11406
2247.00000    0.11165
2247.50000    0.10786
2248.00000    0.10285
2248.50000    0.09681
2249.00000    0.08989
2249.50000    0.08229
2250.00000    0.07415
2250.50000    0.06564
2251.00000    0.05689
2251.50000    0.04805
2252.00000    0.03923
2252.50000    0.03053
2253.00000    0.02205
2253.50000    0.01387
2254.00000    0.00607
2254.50000   -0.00129
2255.00000   -0.00815
2255.50000   -0.01444
2256.00000   -0.02012
2256.50000   -0.02514
2257.00000   -0.02946
2257.50000   -0.03304
2258.00000   -0.03586
2258.50000   -0.03791
2259.00000   -0.03919
2259.50000   -0.03972
2260.00000   -0.03952
2260.50000   -0.03864
2261.00000   -0.03714
2261.50000   -0.03510
2262.00000   -0.03259
2262.50000   -0.02971
2263.00000   -0.02656
2263.50000   -0.02323
2264.00000   -0.01981
2264.50000   -0.01640
2265.00000   -0.01306
2265.50000   -0.00986
2266.00000   -0.00686
2266.50000   -0.00409
2267.00000   -0.00158
2267.50000    0.00067
2268.00000    0.00264
2268.50000    0.00435
2269.00000    0.00580
2269.50000    0.00700
2270.00000    0.00795
2270.50000    0.00868
2271.00000    0.00917
2271.50000    0.00943
2272.00000    0.00946
2272.50000    0.00925
2273.00000    0.00880
2273.50000    0.00810
2274.00000    0.00716
2274.50000    0.00600
2275.00000    0.00464
2275.50000    0.00313
2276.00000    0.00151
2276.50000   -0.00014
2277.00000   -0.00175
2277.50000   -0.00323
2278.00000   -0.00449
2278.50000   -0.00542
2279.00000   -0.00596
2279.50000   -0.00600
2280.00000   -0.00550
2280.50000   -0.00439
2281.00000   -0.00267
2281.50000   -0.00033
2282.00000    0.00259
2282.50000    0.00605
2283.00000    0.00996
2283.50000    0.01422
2284.00000    0.01871
2284.50000    0.02329
2285.00000    0.02782
2285.50000    0.03216
2286.00000    0.03616
2286.50000    0.03969
2287.00000    0.04263
2287.50000    0.04487
2288.00000    0.04633
2288.50000    0.04694
2289.00000    0.04667
2289.50000    0.04548
2290.00000    0.04339
2290.50000    0.04041
2291.00000    0.03659
2291.50000    0.03197
2292.00000    0.02663
2292.50000    0.02066
2293.00000    0.01413
2293.50000    0.00714
2294.00000   -0.00020
2294.50000   -0.00779
2295.00000   -0.01553
2295.50000   -0.02331
2296.00000   -0.03103
2296.50000   -0.03857
2297.00000   -0.04584
2297.50000   -0.05274
2298.00000   -0.05918
2298.50000   -0.06507
2299.00000   -0.07032
2299.50000   -0.07488
2300.00000   -0.07867
2300.50000   -0.08165
2301.00000   -0.08377
2301.50000   -0.08501
2302.00000   -0.08535
2302.50000   -0.08478
2303.00000   -0.08331
2303.50000   -0.08097
2304.00000   -0.07778
2304.50000   -0.07379
2305.00000   -0.06907
2305.50000   -0.06366
2306.00000   -0.05766
2306.50000   -0.05114
2307.00000   -0.04421
2307.50000   -0.03696
2308.00000   -0.02952
2308.50000   -0.02199
2309.00000   -0.01450
2309.50000   -0.00717
2310.00000   -0.00014
2310.50000    0.00648
2311.00000    0.01257
2311.50000    0.01800
2312.00000    0.02269
2312.50000    0.02653
2313.00000    0.02946
2313.50000    0.03143
2314.00000    0.03240
2314.50000    0.03239
2315.00000    0.03140
2315.50000    0.02949
2316.00000    0.02674
2316.50000    0.02325
2317.00000    0.01915
2317.50000    0.01459
2318.00000    0.00972
2318.50000    0.00472
2319.00000   -0.00023
2319.50000   -0.00495
2320.00000   -0.00928
2320.50000   -0.01304
2321.00000   -0.01609
2321.50000   -0.01833
2322.00000   -0.01966
2322.50000   -0.02002
2323.00000   -0.01939
2323.50000   -0.01778
2324.00000   -0.01523
2324.50000   -0.01183
2325.00000   -0.00769
2325.50000   -0.00295
2326.00000    0.00223
2326.50000    0.00767
2327.00000    0.01319
2327.50000    0.01861
2328.00000    0.02375
2328.50000    0.02843
2329.00000    0.03252
2329.50000    0.03590
2330.00000    0.03849
2330.50000    0.04024
2331.00000    0.04113
2331.50000    0.04119
2332.00000    0.04049
2332.50000    0.03912
2333.00000    0.03720
2333.50000    0.03489
2334.00000    0.03232
2334.50000    0.02967
2335.00000    0.02710
2335.50000    0.02475
2336.00000    0.02276
2336.50000    0.02122
2337.00000    0.02020
2337.50000    0.01974
2338.00000    0.01985
2338.50000    0.02047
2339.00000    0.02155
2339.50000    0.02299
2340.00000    0.02466
2340.50000    0.02644
2341.00000    0.02816
2341.50000    0.02971
2342.00000    0.03093
2342.50000    0.03172
2343.00000    0.03200
2343.50000    0.03169
2344.00000    0.03079
2344.50000    0.02931
2345.00000    0.02730
2345.50000    0.02485
2346.00000    0.02207
2346.50000    0.01912
2347.00000    0.01615
2347.50000    0.01335
2348.00000    0.01089
2348.50000    0.00894
2349.00000    0.00767
2349.50000    0.00720
2350.00000    0.00763
2350.50000    0.00904
2351.00000    0.01145
2351.50000    0.01484
2352.00000    0.01915
2352.50000    0.02428
2353.00000    0.03008
2353.50000    0.03638
2354.00000    0.04297
2354.50000    0.04962
2355.00000    0.05609
2355.50000    0.06214
2356.00000    0.06753
2356.50000    0.07203
2357.00000    0.07545
2357.50000    0.07762
2358.00000    0.07841
2358.50000    0.07775
2359.00000    0.07559
2359.50000    0.07195
2360.00000    0.06689
2360.50000    0.06052
2361.00000    0.05298
2361.50000    0.04446
2362.00000    0.03518
2362.50000    0.02536
2363.00000    0.01525
2363.50000    0.00511
2364.00000   -0.00484
2364.50000   -0.01435
2365.00000   -0.02322
2365.50000   -0.03127
2366.00000   -0.03835
2366.50000   -0.04434
2367.00000   -0.04916
2367.50000   -0.05275
2368.00000   -0.05512
2368.50000   -0.05627
2369.00000   -0.05626
2369.50000   -0.05515
2370.00000   -0.05305
2370.50000   -0.05007
2371.00000   -0.04632
2371.50000   -0.04195
2372.00000   -0.03711
2372.50000   -0.03194
2373.00000   -0.02660
2373.50000   -0.02125
2374.00000   -0.01603
2374.50000   -0.01110
2375.00000   -0.00660
2375.50000   -0.00268
2376.00000    0.00053
2376.50000    0.00292
2377.00000    0.00437
2377.50000    0.00481
2378.00000    0.00416
2378.50000    0.00238
2379.00000   -0.00055
2379.50000   -0.00463
2380.00000   -0.00982
2380.50000   -0.01606
2381.00000   -0.02327
2381.50000   -0.03133
2382.00000   -0.04011
2382.50000   -0.04946
2383.00000   -0.05922
2383.50000   -0.06921
2384.00000   -0.07925
2384.50000   -0.08915
2385.00000   -0.09874
2385.50000   -0.10784
2386.00000   -0.11628
2386.50000   -0.12391
2387.00000   -0.13059
2387.50000   -0.13620
2388.00000   -0.14062
2388.50000   -0.14376
2389.00000   -0.14556
2389.50000   -0.14594
2390.00000   -0.14489
2390.50000   -0.14238
2391.00000   -0.13842
2391.50000   -0.13304
2392.00000   -0.12629
2392.50000   -0.11825
2393.00000   -0.10903
2393.50000   -0.09874
2394.00000   -0.08753
2394.50000   -0.07558
2395.00000   -0.06308
2395.50000   -0.05023
2396.00000   -0.03724
2396.50000   -0.02434
2397.00000   -0.01174
2397.50000    0.00033
2398.00000    0.01170
2398.50000    0.02216
2399.00000    0.03159
2399.50000    0.03985
2400.00000    0.04687
2400.50000    0.05260
2401.00000    0.05705
2401.50000    0.06025
2402.00000    0.06229
2402.50000    0.06327
2403.00000    0.06336
2403.50000    0.06271
2404.00000    0.06153
2404.50000    0.06001
2405.00000    0.05836
2405.50000    0.05677
2406.00000    0.05545
2406.50000    0.05455
2407.00000    0.05421
2407.50000    0.05456
2408.00000    0.05565
2408.50000    0.05753
2409.00000    0.06020
2409.50000    0.06362
2410.00000    0.06771
2410.50000    0.07236
2411.00000    0.07745
2411.50000    0.08280
2412.00000    0.08824
2412.50000    0.09358
2413.00000    0.09863
2413.50000    0.10320
2414.00000    0.10709
2414.50000    0.11014
2415.00000    0.11219
2415.50000    0.11312
2416.00000    0.11282
2416.50000    0.11121
2417.00000    0.10825
2417.50000    0.10391
2418.00000    0.09822
2418.50000    0.09121
2419.00000    0.08296
2419.50000    0.07357
2420.00000    0.06314
2420.50000    0.05182
2421.00000    0.03977
2421.50000    0.02716
2422.00000    0.01417
2422.50000    0.00099
2423.00000   -0.01219
2423.50000   -0.02516
2424.00000   -0.03775
2424.50000   -0.04975
2425.00000   -0.06100
2425.50000   -0.07135
2426.00000   -0.08063
2426.50000   -0.08875
2427.00000   -0.09560
2427.50000   -0.10112
2428.00000   -0.10527
2428.50000   -0.10805
2429.00000   -0.10949
2429.50000   -0.10964
2430.00000   -0.10859
2430.50000   -0.10645
2431.00000   -0.10337
2431.50000   -0.09948
2432.00000   -0.09496
2432.50000   -0.08996
2433.00000   -0.08465
2433.50000   -0.07918
2434.00000   -0.07370
2434.50000   -0.06831
2435.00000   -0.06312
2435.50000   -0.05819
2436.00000   -0.05357
2436.50000   -0.04926
2437.00000   -0.04525
2437.50000   -0.04152
2438.00000   -0.03800
2438.50000   -0.03464
2439.00000   -0.03137
2439.50000   -0.02810
2440.00000   -0.02479
2440.50000   -0.02135
2441.00000   -0.01775
2441.50000   -0.01395
2442.00000   -0.00993
2442.50000   -0.00568
2443.00000   -0.00123
2443.50000    0.00340
2444.00000    0.00819
2444.50000    0.01307
2445.00000    0.01802
2445.50000    0.02296
2446.00000    0.02787
2446.50000    0.03268
2447.00000    0.03737
2447.50000    0.04189
2448.00000    0.04621
2448.50000    0.05031
2449.00000    0.05416
2449.50000    0.05774
2450.00000    0.06104
2450.50000    0.06402
2451.00000    0.06668
2451.50000    0.06898
2452.00000    0.07089
2452.50000    0.07239
2453.00000    0.07346
2453.50000    0.07406
2454.00000    0.07418
2454.50000    0.07380
2455.00000    0.07292
2455.50000    0.07154
2456.00000    0.06968
2456.50000    0.06736
2457.00000    0.06461
2457.50000    0.06150
2458.00000    0.05806
2458.50000    0.05436
2459.00000    0.05046
2459.50000    0.04641
2460.00000    0.04228
2460.50000    0.03811
2461.00000    0.03395
2461.50000    0.02980
2462.00000    0.02571
2462.50000    0.02166
2463.00000    0.01765
2463.50000    0.01367
2464.00000    0.00968
2464.50000    0.00568
2465.00000    0.00162
2465.50000   -0.00252
2466.00000   -0.00677
2466.50000   -0.01113
2467.00000   -0.01563
2467.50000   -0.02025
2468.00000   -0.02499
2468.50000   -0.02984
2469.00000   -0.03475
2469.50000   -0.03971
2470.00000   -0.04465
2470.50000   -0.04954
2471.00000   -0.05433
2471.50000   -0.05895
2472.00000   -0.06336
2472.50000   -0.06749
2473.00000   -0.07127
2473.50000   -0.07466
2474.00000   -0.07758
2474.50000   -0.07996
2475.00000   -0.08175
2475.50000   -0.08288
2476.00000   -0.08328
2476.50000   -0.08289
2477.00000   -0.08167
2477.50000   -0.07957
2478.00000   -0.07655
2478.50000   -0.07259
2479.00000   -0.06770
2479.50000   -0.06189
2480.00000   -0.05519
2480.50000   -0.04767
2481.00000   -0.03940
2481.50000   -0.03049
2482.00000   -0.02107
2482.50000   -0.01125
2483.00000   -0.00120
2483.50000    0.00894
2484.00000    0.01901
2484.50000    0.02885
2485.00000    0.03832
2485.50000    0.04728
2486.00000    0.05561
2486.50000    0.06321
2487.00000    0.07000
2487.50000    0.07590
2488.00000    0.08087
2488.50000    0.08489
2489.00000    0.08794
2489.50000    0.09004
2490.00000    0.09118
2490.50000    0.09142
2491.00000    0.09078
2491.50000    0.08931
2492.00000    0.08707
2492.50000    0.08413
2493.00000    0.08054
2493.50000    0.07640
2494.00000    0.07177
2494.50000    0.06677
2495.00000    0.06147
2495.50000    0.05600
2496.00000    0.05046
2496.50000    0.04497
2497.00000    0.03963
2497.50000    0.03457
2498.00000    0.02990
2498.50000    0.02571
2499.00000    0.02210
2499.50000    0.01913
2500.00000    0.01688
2500.50000    0.01536
2501.00000    0.01460
2501.50000    0.01460
2502.00000    0.01532
2502.50000    0.01671
2503.00000    0.01870
2503.50000    0.02120
2504.00000    0.02412
2504.50000    0.02733
2505.00000    0.03070
2505.50000    0.03411
2506.00000    0.03742
2506.50000    0.04050
2507.00000    0.04322
2507.50000    0.04545
2508.00000    0.04708
2508.50000    0.04801
2509.00000    0.04815
2509.50000    0.04743
2510.00000    0.04581
2510.50000    0.04325
2511.00000    0.03976
2511.50000    0.03536
2512.00000    0.03009
2512.50000    0.02403
2513.00000    0.01726
2513.50000    0.00993
2514.00000    0.00215
2514.50000   -0.00591
2515.00000   -0.01408
2515.50000   -0.02219
2516.00000   -0.03007
2516.50000   -0.03754
2517.00000   -0.04444
2517.50000   -0.05063
2518.00000   -0.05598
2518.50000   -0.06041
2519.00000   -0.06384
2519.50000   -0.06623
2520.00000   -0.06758
2520.50000   -0.06792
2521.00000   -0.06730
2521.50000   -0.06580
2522.00000   -0.06352
2522.50000   -0.06061
2523.00000   -0.05718
2523.50000   -0.05341
2524.00000   -0.04943
2524.50000   -0.04541
2525.00000   -0.04150
2525.50000   -0.03785
2526.00000   -0.03458
2526.50000   -0.03182
2527.00000   -0.02966
2527.50000   -0.02820
2528.00000   -0.02749
2528.50000   -0.02758
2529.00000   -0.02847
2529.50000   -0.03017
2530.00000   -0.03265
2530.50000   -0.03585
2531.00000   -0.03969
2531.50000   -0.04409
2532.00000   -0.04894
2532.50000   -0.05409
2533.00000   -0.05941
2533.50000   -0.06475
2534.00000   -0.06995
2534.50000   -0.07487
2535.00000   -0.07934
2535.50000   -0.08323
2536.00000   -0.08640
2536.50000   -0.08875
2537.00000   -0.09017
2537.50000   -0.09059
2538.00000   -0.08995
2538.50000   -0.08823
2539.00000   -0.08541
2539.50000   -0.08151
2540.00000   -0.07656
2540.50000   -0.07060
2541.00000   -0.06372
2541.50000   -0.05598
2542.00000   -0.04748
2542.50000   -0.03833
2543.00000   -0.02863
2543.50000   -0.01851
2544.00000   -0.00808
2544.50000    0.00251
2545.00000    0.01314
2545.50000    0.02367
2546.00000    0.03396
2546.50000    0.04388
2547.00000    0.05329
2547.50000    0.06207
2548.00000    0.07009
2548.50000    0.07726
2549.00000    0.08347
2549.50000    0.08866
2550.00000    0.09278
2550.50000    0.09579
2551.00000    0.09769
2551.50000    0.09852
2552.00000    0.09830
2552.50000    0.09711
2553.00000    0.09505
2553.50000    0.09221
2554.00000    0.08872
2554.50000    0.08470
2555.00000    0.08029
2555.50000    0.07561
2556.00000    0.07079
2556.50000    0.06594
2557.00000    0.06115
2557.50000    0.05650
2558.00000    0.05206
2558.50000    0.04785
2559.00000    0.04391
2559.50000    0.04023
2560.00000    0.03680
2560.50000    0.03361
2561.00000    0.03061
2561.50000    0.02777
2562.00000    0.02504
2562.50000    0.02239
2563.00000    0.01978
2563.50000    0.01718
2564.00000    0.01457
2564.50000    0.01194
2565.00000    0.00929
2565.50000    0.00665
2566.00000    0.00404
2566.50000    0.00149
2567.00000   -0.00094
2567.50000   -0.00320
2568.00000   -0.00522
2568.50000   -0.00694
2569.00000   -0.00829
2569.50000   -0.00922
2570.00000   -0.00967
2570.50000   -0.00960
2571.00000   -0.00899
2571.50000   -0.00783
2572.00000   -0.00613
2572.50000   -0.00394
2573.00000   -0.00132
2573.50000    0.00164
2574.00000    0.00483
2574.50000    0.00812
2575.00000    0.01135
2575.50000    0.01436
2576.00000    0.01698
2576.50000    0.01904
2577.00000    0.02039
2577.50000    0.02087
2578.00000    0.02037
2578.50000    0.01879
2579.00000    0.01609
2579.50000    0.01225
2580.00000    0.00730
2580.50000    0.00130
2581.00000   -0.00562
2581.50000   -0.01331
2582.00000   -0.02159
2582.50000   -0.03026
2583.00000   -0.03908
2583.50000   -0.04785
2584.00000   -0.05632
2584.50000   -0.06429
2585.00000   -0.07157
2585.50000   -0.07801
2586.00000   -0.08348
2586.50000   -0.08789
2587.00000   -0.09122
2587.50000   -0.09345
2588.00000   -0.09461
2588.50000   -0.09478
2589.00000   -0.09405
2589.50000   -0.09254
2590.00000   -0.09035
2590.50000   -0.08764
2591.00000   -0.08452
2591.50000   -0.08111
2592.00000   -0.07753
2592.50000   -0.07385
2593.00000   -0.07015
2593.50000   -0.06649
2594.00000   -0.06289
2594.50000   -0.05938
2595.00000   -0.05596
2595.50000   -0.05263
2596.00000   -0.04939
2596.50000   -0.04621
2597.00000   -0.04309
2597.50000   -0.04003
2598.00000   -0.03701
2598.50000   -0.03404
2599.00000   -0.03113
2599.50000   -0.02828
2600.00000   -0.02551
2600.50000   -0.02281
2601.00000   -0.02021
2601.50000   -0.01769
2602.00000   -0.01526
2602.50000   -0.01291
2603.00000   -0.01060
2603.50000   -0.00831
2604.00000   -0.00600
2604.50000   -0.00362
2605.00000   -0.00114
2605.50000    0.00151
2606.00000    0.00436
2606.50000    0.00746
2607.00000    0.01085
2607.50000    0.01454
2608.00000    0.01854
2608.50000    0.02285
2609.00000    0.02743
2609.50000    0.03224
2610.00000    0.03722
2610.50000    0.04229
2611.00000    0.04734
2611.50000    0.05227
2612.00000    0.05695
2612.50000    0.06126
2613.00000    0.06506
2613.50000    0.06824
2614.00000    0.07068
2614.50000    0.07228
2615.00000    0.07295
2615.50000    0.07263
2616.00000    0.07129
2616.50000    0.06891
2617.00000    0.06553
2617.50000    0.06118
2618.00000    0.05596
2618.50000    0.04996
2619.00000    0.04331
2619.50000    0.03616
2620.00000    0.02865
2620.50000    0.02097
2621.00000    0.01328
2621.50000    0.00575
2622.00000   -0.00145
2622.50000   -0.00818
2623.00000   -0.01428
2623.50000   -0.01962
2624.00000   -0.02410
2624.50000   -0.02760
2625.00000   -0.03003
2625.50000   -0.03132
2626.00000   -0.03141
2626.50000   -0.03025
2627.00000   -0.02778
2627.50000   -0.02398
2628.00000   -0.01884
2628.50000   -0.01234
2629.00000   -0.00448
2629.50000    0.00470
2630.00000    0.01518
2630.50000    0.02690
2631.00000    0.03979
2631.50000    0.05374
2632.00000    0.06864
2632.50000    0.08437
2633.00000    0.10076
2633.50000    0.11768
2634.00000    0.13494
2634.50000    0.15239
2635.00000    0.16987
2635.50000    0.18724
2636.00000    0.20439
2636.50000    0.22121
2637.00000    0.23764
2637.50000    0.25367
2638.00000    0.26932
2638.50000    0.28464
2639.00000    0.29974
2639.50000    0.31477
2640.00000    0.32990
2640.50000    0.34537
2641.00000    0.36141
2641.50000    0.37832
2642.00000    0.39639
2642.50000    0.41592
2643.00000    0.43726
2643.50000    0.46072
2644.00000    0.48664
2644.50000    0.51535
2645.00000    0.54716
2645.50000    0.58240
2646.00000    0.62135
2646.50000    0.66429
2647.00000    0.71149
2647.50000    0.76320
2648.00000    0.81961
2648.50000    0.88093
2649.00000    0.94732
2649.50000    1.01893
2650.00000    1.09586
2650.50000    1.17819
2651.00000    1.26601
2651.50000    1.35933
2652.00000    1.45820
2652.50000    1.56260
2653.00000    1.67254
2653.50000    1.78799
2654.00000    1.90894
2654.50000    2.03533
2655.00000    2.16716
2655.50000    2.30437
2656.00000    2.44693
2656.50000    2.59481
2657.00000    2.74796
2657.50000    2.90635
2658.00000    3.06991
2658.50000    3.23860
2659.00000    3.41233
2659.50000    3.59102
2660.00000    3.77457
2660.50000    3.96285
2661.00000    4.15570
2661.50000    4.35297
2662.00000    4.55443
2662.50000    4.75988
2663.00000    4.96904
2663.50000    5.18163
2664.00000    5.39731
2664.50000    5.61574
2665.00000    5.83651
2665.50000    6.05917
2666.00000    6.28324
2666.50000    6.50817
2667.00000    6.73337
2667.50000    6.95820
2668.00000    7.18193
2668.50000    7.40381
2669.00000    7.62299
2669.50000    7.83859
2670.00000    8.04967
2670.50000    8.25523
2671.00000    8.45424
2671.50000    8.64565
2672.00000    8.82836
2672.50000    9.00131
2673.00000    9.16343
2673.50000    9.31369
2674.00000    9.45112
2674.50000    9.57478
2675.00000    9.68387
2675.50000    9.77764
2676.00000    9.85549
2676.50000    9.91693
2677.00000    9.96161
2677.50000    9.98932
2678.00000   10.00000
2678.50000    9.99373
2679.00000    9.97074
2679.50000    9.93137
2680.00000    9.87610
2680.50000    9.80553
2681.00000    9.72033
2681.50000    9.62127
2682.00000    9.50918
2682.50000    9.38494
2683.00000    9.24946
2683.50000    9.10366
2684.00000    8.94846
2684.50000    8.78477
2685.00000    8.61348
2685.50000    8.43543
2686.00000    8.25143
2686.50000    8.06225
2687.00000    7.86859
2687.50000    7.67114
2688.00000    7.47050
2688.50000    7.26727
2689.00000    7.06198
2689.50000    6.85516
2690.00000    6.64730
2690.50000    6.43885
2691.00000    6.23028
2691.50000    6.02204
2692.00000    5.81455
2692.50000    5.60825
2693.00000    5.40356
2693.50000    5.20091
2694.00000    5.00070
2694.50000    4.80334
2695.00000    4.60921
2695.50000    4.41870
2696.00000    4.23214
2696.50000    4.04987
2697.00000    3.87219
2697.50000    3.69935
2698.00000    3.53159
2698.50000    3.36911
2699.00000    3.21205
2699.50000    3.06055
2700.00000    2.91467
2700.50000    2.77446
2701.00000    2.63994
2701.50000    2.51108
2702.00000    2.38784
2702.50000    2.27014
2703.00000    2.15789
2703.50000    2.05099
2704.00000    1.94930
2704.50000    1.85270
2705.00000    1.76103
2705.50000    1.67415
2706.00000    1.59191
2706.50000    1.51415
2707.00000    1.44072
2707.50000    1.37144
2708.00000    1.30617
2708.50000    1.24474
2709.00000    1.18698
2709.50000    1.13273
2710.00000    1.08180
2710.50000    1.03403
2711.00000    0.98922
2711.50000    0.94718
2712.00000    0.90774
2712.50000    0.87068
2713.00000    0.83583
2713.50000    0.80298
2714.00000    0.77195
2714.50000    0.74255
2715.00000    0.71462
2715.50000    0.68801
2716.00000    0.66255
2716.50000    0.63813
2717.00000    0.61464
2717.50000    0.59198
2718.00000    0.57007
2718.50000    0.54886
2719.00000    0.52828
2719.50000    0.50829
2720.00000    0.48887
2720.50000    0.46999
2721.00000    0.45160
2721.50000    0.43368
2722.00000    0.41620
2722.50000    0.39912
2723.00000    0.38238
2723.50000    0.36595
2724.00000    0.34976
2724.50000    0.33377
2725.00000    0.31792
2725.50000    0.30216
2726.00000    0.28647
2726.50000    0.27082
2727.00000    0.25519
2727.50000    0.23958
2728.00000    0.22404
2728.50000    0.20859
2729.00000    0.19330
2729.50000    0.17823
2730.00000    0.16348
2730.50000    0.14914
2731.00000    0.13529
2731.50000    0.12204
2732.00000    0.10945
2732.50000    0.09761
2733.00000    0.08656
2733.50000    0.07632
2734.00000    0.06691
2734.50000    0.05830
2735.00000    0.05045
2735.50000    0.04328
2736.00000    0.03671
2736.50000    0.03063
2737.00000    0.02493
2737.50000    0.01948
2738.00000    0.01417
2738.50000    0.00888
2739.00000    0.00352
2739.50000   -0.00199
2740.00000   -0.00772
2740.50000   -0.01368
2741.00000   -0.01990
2741.50000   -0.02634
2742.00000   -0.03296
2742.50000   -0.03967
2743.00000   -0.04639
2743.50000   -0.05299
2744.00000   -0.05935
2744.50000   -0.06534
2745.00000   -0.07081
2745.50000   -0.07563
2746.00000   -0.07969
2746.50000   -0.08287
2747.00000   -0.08510
2747.50000   -0.08629
2748.00000   -0.08642
2748.50000   -0.08547
2749.00000   -0.08346
2749.50000   -0.08043
2750.00000   -0.07645
2750.50000   -0.07163
2751.00000   -0.06608
2751.50000   -0.05993
2752.00000   -0.05334
2752.50000   -0.04646
2753.00000   -0.03946
2753.50000   -0.03251
2754.00000   -0.02577
2754.50000   -0.01937
2755.00000   -0.01346
2755.50000   -0.00816
2756.00000   -0.00354
2756.50000    0.00032
2757.00000    0.00339
2757.50000    0.00565
2758.00000    0.00714
2758.50000    0.00789
2759.00000    0.00799
2759.50000    0.00753
2760.00000    0.00663
2760.50000    0.00543
2761.00000    0.00406
2761.50000    0.00266
2762.00000    0.00138
2762.50000    0.00034
2763.00000   -0.00035
2763.50000   -0.00061
2764.00000   -0.00035
2764.50000    0.00044
2765.00000    0.00177
2765.50000    0.00363
2766.00000    0.00596
2766.50000    0.00869
2767.00000    0.01173
2767.50000    0.01497
2768.00000    0.01831
2768.50000    0.02162
2769.00000    0.02482
2769.50000    0.02780
2770.00000    0.03052
2770.50000    0.03292
2771.00000    0.03499
2771.50000    0.03675
2772.00000    0.03824
2772.50000    0.03953
2773.00000    0.04070
2773.50000    0.04186
2774.00000    0.04310
2774.50000    0.04454
2775.00000    0.04627
2775.50000    0.04835
2776.00000    0.05084
2776.50000    0.05373
2777.00000    0.05701
2777.50000    0.06061
2778.00000    0.06443
2778.50000    0.06832
2779.00000    0.07212
2779.50000    0.07563
2780.00000    0.07864
2780.50000    0.08096
2781.00000    0.08236
2781.50000    0.08266
2782.00000    0.08172
2782.50000    0.07941
2783.00000    0.07567
2783.50000    0.07047
2784.00000    0.06385
2784.50000    0.05591
2785.00000    0.04678
2785.50000    0.03667
2786.00000    0.02579
2786.50000    0.01442
2787.00000    0.00283
2787.50000   -0.00868
2788.00000   -0.01983
2788.50000   -0.03035
2789.00000   -0.03997
2789.50000   -0.04850
2790.00000   -0.05575
2790.50000   -0.06161
2791.00000   -0.06599
2791.50000   -0.06889
2792.00000   -0.07032
2792.50000   -0.07039
2793.00000   -0.06921
2793.50000   -0.06696
2794.00000   -0.06383
2794.50000   -0.06006
2795.00000   -0.05587
2795.50000   -0.05151
2796.00000   -0.04722
2796.50000   -0.04321
2797.00000   -0.03968
2797.50000   -0.03679
2798.00000   -0.03466
2798.50000   -0.03336
2799.00000   -0.03292
2799.50000   -0.03330
2800.00000   -0.03442
2800.50000   -0.03614
2801.00000   -0.03829
2801.50000   -0.04065
2802.00000   -0.04295
2802.50000   -0.04493
2803.00000   -0.04630
2803.50000   -0.04678
2804.00000   -0.04610
2804.50000   -0.04401
2805.00000   -0.04033
2805.50000   -0.03489
2806.00000   -0.02761
2806.50000   -0.01846
2807.00000   -0.00749
2807.50000    0.00519
2808.00000    0.01940
2808.50000    0.03489
2809.00000    0.05138
2809.50000    0.06852
2810.00000    0.08595
2810.50000    0.10328
2811.00000    0.12014
2811.50000    0.13613
2812.00000    0.15093
2812.50000    0.16420
2813.00000    0.17568
2813.50000    0.18514
2814.00000    0.19241
2814.50000    0.19740
2815.00000    0.20004
2815.50000    0.20033
2816.00000    0.19832
2816.50000    0.19410
2817.00000    0.18779
2817.50000    0.17957
2818.00000    0.16959
2818.50000    0.15807
2819.00000    0.14521
2819.50000    0.13122
2820.00000    0.11632
2820.50000    0.10073
2821.00000    0.08464
2821.50000    0.06827
2822.00000    0.05181
2822.50000    0.03545
2823.00000    0.01936
2823.50000    0.00371
2824.00000   -0.01135
2824.50000   -0.02569
2825.00000   -0.03918
2825.50000   -0.05171
2826.00000   -0.06320
2826.50000   -0.07356
2827.00000   -0.08274
2827.50000   -0.09070
2828.00000   -0.09740
2828.50000   -0.10282
2829.00000   -0.10696
2829.50000   -0.10983
2830.00000   -0.11144
2830.50000   -0.11181
2831.00000   -0.11097
2831.50000   -0.10897
2832.00000   -0.10586
2832.50000   -0.10171
2833.00000   -0.09659
2833.50000   -0.09060
2834.00000   -0.08384
2834.50000   -0.07645
2835.00000   -0.06856
2835.50000   -0.06031
2836.00000   -0.05188
2836.50000   -0.04340
2837.00000   -0.03506
2837.50000   -0.02699
2838.00000   -0.01932
2838.50000   -0.01218
2839.00000   -0.00564
2839.50000    0.00023
2840.00000    0.00541
2840.50000    0.00991
2841.00000    0.01377
2841.50000    0.01706
2842.00000    0.01987
2842.50000    0.02230
2843.00000    0.02446
2843.50000    0.02646
2844.00000    0.02839
2844.50000    0.03034
2845.00000    0.03237
2845.50000    0.03451
2846.00000    0.03677
2846.50000    0.03912
2847.00000    0.04153
2847.50000    0.04394
2848.00000    0.04627
2848.50000    0.04844
2849.00000    0.05037
2849.50000    0.05200
2850.00000    0.05325
2850.50000    0.05408
2851.00000    0.05445
2851.50000    0.05435
2852.00000    0.05377
2852.50000    0.05272
2853.00000    0.05122
2853.50000    0.04930
2854.00000    0.04697
2854.50000    0.04428
2855.00000    0.04124
2855.50000    0.03788
2856.00000    0.03422
2856.50000    0.03029
2857.00000    0.02610
2857.50000    0.02167
2858.00000    0.01706
2858.50000    0.01228
2859.00000    0.00740
2859.50000    0.00248
2860.00000   -0.00242
2860.50000   -0.00720
2861.00000   -0.01179
2861.50000   -0.01610
2862.00000   -0.02003
2862.50000   -0.02351
2863.00000   -0.02647
2863.50000   -0.02884
2864.00000   -0.03057
2864.50000   -0.03165
2865.00000   -0.03205
2865.50000   -0.03176
2866.00000   -0.03081
2866.50000   -0.02920
2867.00000   -0.02696
2867.50000   -0.02410
2868.00000   -0.02065
2868.50000   -0.01663
2869.00000   -0.01206
2869.50000   -0.00695
2870.00000   -0.00131
2870.50000    0.00484
2871.00000    0.01147
2871.50000    0.01855
2872.00000    0.02604
2872.50000    0.03387
2873.00000    0.04197
2873.50000    0.05024
2874.00000    0.05856
2874.50000    0.06680
2875.00000    0.07484
2875.50000    0.08253
2876.00000    0.08974
2876.50000    0.09632
2877.00000    0.10216
2877.50000    0.10717
2878.00000    0.11126
2878.50000    0.11439
2879.00000    0.11652
2879.50000    0.11767
2880.00000    0.11784
2880.50000    0.11709
2881.00000    0.11548
2881.50000    0.11307
2882.00000    0.10993
2882.50000    0.10613
2883.00000    0.10174
2883.50000    0.09682
2884.00000    0.09141
2884.50000    0.08553
2885.00000    0.07922
2885.50000    0.07248
2886.00000    0.06531
2886.50000    0.05773
2887.00000    0.04971
2887.50000    0.04127
2888.00000    0.03241
2888.50000    0.02314
2889.00000    0.01349
2889.50000    0.00349
2890.00000   -0.00682
2890.50000   -0.01739
2891.00000   -0.02815
2891.50000   -0.03904
2892.00000   -0.04999
2892.50000   -0.06094
2893.00000   -0.07181
2893.50000   -0.08254
2894.00000   -0.09309
2894.50000   -0.10340
2895.00000   -0.11344
2895.50000   -0.12319
2896.00000   -0.13266
2896.50000   -0.14183
2897.00000   -0.15075
2897.50000   -0.15945
2898.00000   -0.16797
2898.50000   -0.17636
2899.00000   -0.18468
2899.50000   -0.19297
